nm, A
700.000000, 0.000661
699.000000, 0.000626
698.000000, 0.000692
697.000000, 0.000631
696.000000, 0.000680
695.000000, 0.000649
694.000000, 0.000706
693.000000, 0.000628
692.000000, 0.000746
691.000000, 0.000711
690.000000, 0.000755
689.000000, 0.000738
688.000000, 0.000844
687.000000, 0.000690
686.000000, 0.000796
685.000000, 0.000721
684.000000, 0.000765
683.000000, 0.000801
682.000000, 0.000862
681.000000, 0.000739
680.000000, 0.000779
679.000000, 0.000832
678.000000, 0.000832
677.000000, 0.000780
676.000000, 0.000894
675.000000, 0.000811
674.000000, 0.000824
673.000000, 0.000838
672.000000, 0.000781
671.000000, 0.000856
670.000000, 0.000852
669.000000, 0.000852
668.000000, 0.000786
667.000000, 0.000843
666.000000, 0.000896
665.000000, 0.000830
664.000000, 0.000839
663.000000, 0.000954
662.000000, 0.000968
661.000000, 0.001012
660.000000, 0.000942
659.000000, 0.000853
658.000000, 0.001017
657.000000, 0.000836
656.000000, 0.001000
655.000000, 0.001000
654.000000, 0.001128
653.000000, 0.000943
652.000000, 0.001208
651.000000, 0.001076
650.000000, 0.001063
649.000000, 0.001058
648.000000, 0.001023
647.000000, 0.001218
646.000000, 0.001205
645.000000, 0.001223
644.000000, 0.001148
643.000000, 0.001276
642.000000, 0.001210
641.000000, 0.001277
640.000000, 0.001321
639.000000, 0.001175
638.000000, 0.001273
637.000000, 0.001273
636.000000, 0.001326
635.000000, 0.001304
634.000000, 0.001375
633.000000, 0.001322
632.000000, 0.001535
631.000000, 0.001424
630.000000, 0.001380
629.000000, 0.001491
628.000000, 0.001486
627.000000, 0.001509
626.000000, 0.001518
625.000000, 0.001584
624.000000, 0.001620
623.000000, 0.001611
622.000000, 0.001567
621.000000, 0.001531
620.000000, 0.001629
619.000000, 0.001748
618.000000, 0.001642
617.000000, 0.001699
616.000000, 0.001717
615.000000, 0.001744
614.000000, 0.001788
613.000000, 0.001735
612.000000, 0.001761
611.000000, 0.001859
610.000000, 0.001956
609.000000, 0.001876
608.000000, 0.001929
607.000000, 0.001898
606.000000, 0.001938
605.000000, 0.002124
604.000000, 0.002066
603.000000, 0.002110
602.000000, 0.002097
601.000000, 0.002155
600.000000, 0.002150
599.000000, 0.002226
598.000000, 0.002336
597.000000, 0.002310
596.000000, 0.002221
595.000000, 0.002297
594.000000, 0.002324
593.000000, 0.002432
592.000000, 0.002304
591.000000, 0.002452
590.000000, 0.002444
589.000000, 0.002495
588.000000, 0.002492
587.000000, 0.002504
586.000000, 0.002524
585.000000, 0.002593
584.000000, 0.002677
583.000000, 0.002586
582.000000, 0.002616
581.000000, 0.002826
580.000000, 0.002713
579.000000, 0.002801
578.000000, 0.002845
577.000000, 0.002834
576.000000, 0.002958
575.000000, 0.002974
574.000000, 0.003022
573.000000, 0.003056
572.000000, 0.003240
571.000000, 0.003124
570.000000, 0.003280
569.000000, 0.003214
568.000000, 0.003474
567.000000, 0.003438
566.000000, 0.003572
565.000000, 0.003587
564.000000, 0.003784
563.000000, 0.003684
562.000000, 0.003848
561.000000, 0.003881
560.000000, 0.004032
559.000000, 0.004079
558.000000, 0.004319
557.000000, 0.004404
556.000000, 0.004487
555.000000, 0.004669
554.000000, 0.004915
553.000000, 0.005034
552.000000, 0.005143
551.000000, 0.005407
550.000000, 0.005444
549.000000, 0.005658
548.000000, 0.005986
547.000000, 0.006218
546.000000, 0.006437
545.000000, 0.006792
544.000000, 0.007194
543.000000, 0.007609
542.000000, 0.008208
541.000000, 0.008632
540.000000, 0.009244
539.000000, 0.009956
538.000000, 0.010769
537.000000, 0.011720
536.000000, 0.012837
535.000000, 0.014098
534.000000, 0.015624
533.000000, 0.017453
532.000000, 0.019579
531.000000, 0.022148
530.000000, 0.025202
529.000000, 0.028809
528.000000, 0.033080
527.000000, 0.038325
526.000000, 0.044617
525.000000, 0.052117
524.000000, 0.061148
523.000000, 0.071815
522.000000, 0.084626
521.000000, 0.100015
520.000000, 0.118406
519.000000, 0.140265
518.000000, 0.166041
517.000000, 0.196936
516.000000, 0.233155
515.000000, 0.275577
514.000000, 0.324816
513.000000, 0.382308
512.000000, 0.448001
511.000000, 0.524674
510.000000, 0.611465
509.000000, 0.709999
508.000000, 0.820036
507.000000, 0.942258
506.000000, 1.074929
505.000000, 1.216583
504.000000, 1.366408
503.000000, 1.521288
502.000000, 1.677551
501.000000, 1.830562
500.000000, 1.975490
499.000000, 2.106007
498.000000, 2.219466
497.000000, 2.317686
496.000000, 2.389634
495.000000, 2.447342
494.000000, 2.491083
493.000000, 2.519909
492.000000, 2.530456
491.000000, 2.539692
490.000000, 2.544517
489.000000, 2.535146
488.000000, 2.523114
487.000000, 2.495562
486.000000, 2.466975
485.000000, 2.427978
484.000000, 2.378021
483.000000, 2.316231
482.000000, 2.250685
481.000000, 2.171908
480.000000, 2.089447
479.000000, 2.003232
478.000000, 1.916762
477.000000, 1.831750
476.000000, 1.746708
475.000000, 1.669004
474.000000, 1.594036
473.000000, 1.526531
472.000000, 1.463871
471.000000, 1.408221
470.000000, 1.357828
469.000000, 1.313208
468.000000, 1.273559
467.000000, 1.237422
466.000000, 1.205279
465.000000, 1.175016
464.000000, 1.145385
463.000000, 1.117320
462.000000, 1.088192
461.000000, 1.057674
460.000000, 1.026313
459.000000, 0.992582
458.000000, 0.958160
457.000000, 0.921862
456.000000, 0.884247
455.000000, 0.844999
454.000000, 0.805162
453.000000, 0.764517
452.000000, 0.724424
451.000000, 0.684167
450.000000, 0.645127
449.000000, 0.606603
448.000000, 0.570467
447.000000, 0.535695
446.000000, 0.503305
445.000000, 0.472648
444.000000, 0.443864
443.000000, 0.417124
442.000000, 0.392647
441.000000, 0.370429
440.000000, 0.349864
439.000000, 0.331063
438.000000, 0.314023
437.000000, 0.298204
436.000000, 0.283361
435.000000, 0.269716
434.000000, 0.256987
433.000000, 0.244797
432.000000, 0.232999
431.000000, 0.221739
430.000000, 0.211111
429.000000, 0.200560
428.000000, 0.190424
427.000000, 0.180476
426.000000, 0.171054
425.000000, 0.161915
424.000000, 0.153262
423.000000, 0.144880
422.000000, 0.137159
421.000000, 0.129824
420.000000, 0.122854
419.000000, 0.116390
418.000000, 0.110463
417.000000, 0.105277
416.000000, 0.100439
415.000000, 0.096003
414.000000, 0.092033
413.000000, 0.088668
412.000000, 0.085761
411.000000, 0.083174
410.000000, 0.080793
409.000000, 0.078902
408.000000, 0.077267
407.000000, 0.075903
406.000000, 0.074747
405.000000, 0.073714
404.000000, 0.072935
403.000000, 0.072263
402.000000, 0.071792
401.000000, 0.071269
400.000000, 0.070853
399.000000, 0.070497
398.000000, 0.070367
397.000000, 0.070432
396.000000, 0.070411
395.000000, 0.070353
394.000000, 0.070456
393.000000, 0.070604
392.000000, 0.070968
391.000000, 0.071150
390.000000, 0.071640
389.000000, 0.072211
388.000000, 0.072707
387.000000, 0.073399
386.000000, 0.073829
385.000000, 0.074551
384.000000, 0.073188
383.000000, 0.070637
382.000000, 0.072425
381.000000, 0.071841
380.000000, 0.072357
379.000000, 0.072396
378.000000, 0.072424
377.000000, 0.072540
376.000000, 0.071988
375.000000, 0.071821
374.000000, 0.071269
373.000000, 0.070995
372.000000, 0.069805
371.000000, 0.069601
370.000000, 0.068625
369.000000, 0.068211
368.000000, 0.067281
367.000000, 0.066827
366.000000, 0.066302
365.000000, 0.065585
364.000000, 0.065307
363.000000, 0.064952
362.000000, 0.064778
361.000000, 0.064554
360.000000, 0.064935
359.000000, 0.064187
358.000000, 0.064889
357.000000, 0.064628
356.000000, 0.065524
355.000000, 0.066052
354.000000, 0.067411
353.000000, 0.068501
352.000000, 0.070755
351.000000, 0.072829
350.000000, 0.075241
