nm, A
700.000000, 0.000675
699.000000, 0.000626
698.000000, 0.000719
697.000000, 0.000622
696.000000, 0.000772
695.000000, 0.000618
694.000000, 0.000684
693.000000, 0.000676
692.000000, 0.000777
691.000000, 0.000755
690.000000, 0.000760
689.000000, 0.000646
688.000000, 0.000743
687.000000, 0.000703
686.000000, 0.000796
685.000000, 0.000770
684.000000, 0.000884
683.000000, 0.000832
682.000000, 0.000893
681.000000, 0.000757
680.000000, 0.000898
679.000000, 0.000793
678.000000, 0.000965
677.000000, 0.000863
676.000000, 0.000837
675.000000, 0.000908
674.000000, 0.000824
673.000000, 0.000860
672.000000, 0.000909
671.000000, 0.000913
670.000000, 0.000843
669.000000, 0.000940
668.000000, 0.000905
667.000000, 0.000883
666.000000, 0.000985
665.000000, 0.000905
664.000000, 0.000963
663.000000, 0.000985
662.000000, 0.001056
661.000000, 0.000990
660.000000, 0.001039
659.000000, 0.000968
658.000000, 0.001017
657.000000, 0.000925
656.000000, 0.001048
655.000000, 0.001018
654.000000, 0.001221
653.000000, 0.000952
652.000000, 0.001253
651.000000, 0.001116
650.000000, 0.001134
649.000000, 0.001152
648.000000, 0.001099
647.000000, 0.001227
646.000000, 0.001179
645.000000, 0.001285
644.000000, 0.001197
643.000000, 0.001285
642.000000, 0.001308
641.000000, 0.001339
640.000000, 0.001379
639.000000, 0.001330
638.000000, 0.001357
637.000000, 0.001428
636.000000, 0.001397
635.000000, 0.001464
634.000000, 0.001482
633.000000, 0.001446
632.000000, 0.001580
631.000000, 0.001535
630.000000, 0.001455
629.000000, 0.001535
628.000000, 0.001664
627.000000, 0.001544
626.000000, 0.001647
625.000000, 0.001553
624.000000, 0.001629
623.000000, 0.001664
622.000000, 0.001691
621.000000, 0.001713
620.000000, 0.001704
619.000000, 0.001793
618.000000, 0.001700
617.000000, 0.001917
616.000000, 0.001824
615.000000, 0.001882
614.000000, 0.001877
613.000000, 0.001975
612.000000, 0.001930
611.000000, 0.002014
610.000000, 0.002041
609.000000, 0.002072
608.000000, 0.002054
607.000000, 0.002058
606.000000, 0.002000
605.000000, 0.002133
604.000000, 0.002164
603.000000, 0.002221
602.000000, 0.002292
601.000000, 0.002190
600.000000, 0.002359
599.000000, 0.002274
598.000000, 0.002376
597.000000, 0.002377
596.000000, 0.002404
595.000000, 0.002426
594.000000, 0.002480
593.000000, 0.002512
592.000000, 0.002429
591.000000, 0.002590
590.000000, 0.002591
589.000000, 0.002695
588.000000, 0.002617
587.000000, 0.002691
586.000000, 0.002627
585.000000, 0.002781
584.000000, 0.002798
583.000000, 0.002703
582.000000, 0.002791
581.000000, 0.002880
580.000000, 0.002852
579.000000, 0.002941
578.000000, 0.002921
577.000000, 0.003010
576.000000, 0.003094
575.000000, 0.003142
574.000000, 0.003249
573.000000, 0.003356
572.000000, 0.003381
571.000000, 0.003324
570.000000, 0.003425
569.000000, 0.003550
568.000000, 0.003597
567.000000, 0.003639
566.000000, 0.003718
565.000000, 0.003728
564.000000, 0.003884
563.000000, 0.003976
562.000000, 0.004067
561.000000, 0.004110
560.000000, 0.004229
559.000000, 0.004335
558.000000, 0.004588
557.000000, 0.004619
556.000000, 0.004729
555.000000, 0.004884
554.000000, 0.005094
553.000000, 0.005167
552.000000, 0.005322
551.000000, 0.005599
550.000000, 0.005746
549.000000, 0.005983
548.000000, 0.006178
547.000000, 0.006470
546.000000, 0.006762
545.000000, 0.007145
544.000000, 0.007428
543.000000, 0.007926
542.000000, 0.008516
541.000000, 0.008931
540.000000, 0.009470
539.000000, 0.010261
538.000000, 0.011088
537.000000, 0.012086
536.000000, 0.013176
535.000000, 0.014526
534.000000, 0.015993
533.000000, 0.017833
532.000000, 0.020069
531.000000, 0.022646
530.000000, 0.025775
529.000000, 0.029445
528.000000, 0.033815
527.000000, 0.039093
526.000000, 0.045382
525.000000, 0.053144
524.000000, 0.062170
523.000000, 0.072969
522.000000, 0.086041
521.000000, 0.101611
520.000000, 0.120143
519.000000, 0.142211
518.000000, 0.168543
517.000000, 0.199631
516.000000, 0.236340
515.000000, 0.279013
514.000000, 0.329088
513.000000, 0.387013
512.000000, 0.453261
511.000000, 0.530604
510.000000, 0.618383
509.000000, 0.717518
508.000000, 0.828532
507.000000, 0.951453
506.000000, 1.084549
505.000000, 1.227835
504.000000, 1.379034
503.000000, 1.534480
502.000000, 1.693021
501.000000, 1.848266
500.000000, 1.993272
499.000000, 2.128979
498.000000, 2.246354
497.000000, 2.347649
496.000000, 2.421649
495.000000, 2.484102
494.000000, 2.527356
493.000000, 2.555539
492.000000, 2.573681
491.000000, 2.571996
490.000000, 2.585753
489.000000, 2.573775
488.000000, 2.563908
487.000000, 2.535272
486.000000, 2.504047
485.000000, 2.460440
484.000000, 2.404551
483.000000, 2.333301
482.000000, 2.272835
481.000000, 2.189609
480.000000, 2.105753
479.000000, 2.016553
478.000000, 1.927653
477.000000, 1.841309
476.000000, 1.756599
475.000000, 1.675341
474.000000, 1.601512
473.000000, 1.533692
472.000000, 1.470596
471.000000, 1.414834
470.000000, 1.363919
469.000000, 1.318705
468.000000, 1.278745
467.000000, 1.242588
466.000000, 1.209929
465.000000, 1.179421
464.000000, 1.149818
463.000000, 1.121118
462.000000, 1.092023
461.000000, 1.061972
460.000000, 1.029975
459.000000, 0.996284
458.000000, 0.961455
457.000000, 0.925348
456.000000, 0.887129
455.000000, 0.847632
454.000000, 0.807621
453.000000, 0.766969
452.000000, 0.726371
451.000000, 0.685853
450.000000, 0.646889
449.000000, 0.608509
448.000000, 0.571967
447.000000, 0.537251
446.000000, 0.504793
445.000000, 0.473927
444.000000, 0.445364
443.000000, 0.418678
442.000000, 0.394240
441.000000, 0.371965
440.000000, 0.351248
439.000000, 0.332780
438.000000, 0.315421
437.000000, 0.299463
436.000000, 0.284911
435.000000, 0.271220
434.000000, 0.258258
433.000000, 0.246049
432.000000, 0.234312
431.000000, 0.222944
430.000000, 0.212234
429.000000, 0.201541
428.000000, 0.191446
427.000000, 0.181364
426.000000, 0.171958
425.000000, 0.162840
424.000000, 0.154175
423.000000, 0.145668
422.000000, 0.138021
421.000000, 0.130584
420.000000, 0.123669
419.000000, 0.117103
418.000000, 0.111278
417.000000, 0.105972
416.000000, 0.101196
415.000000, 0.096718
414.000000, 0.092781
413.000000, 0.089398
412.000000, 0.086498
411.000000, 0.083745
410.000000, 0.081654
409.000000, 0.079572
408.000000, 0.077995
407.000000, 0.076678
406.000000, 0.075426
405.000000, 0.074441
404.000000, 0.073573
403.000000, 0.072993
402.000000, 0.072321
401.000000, 0.072100
400.000000, 0.071575
399.000000, 0.071240
398.000000, 0.071061
397.000000, 0.071067
396.000000, 0.071185
395.000000, 0.071111
394.000000, 0.071176
393.000000, 0.071404
392.000000, 0.071672
391.000000, 0.071866
390.000000, 0.072513
389.000000, 0.072955
388.000000, 0.073543
387.000000, 0.074215
386.000000, 0.074554
385.000000, 0.075261
384.000000, 0.073791
383.000000, 0.072035
382.000000, 0.073209
381.000000, 0.073399
380.000000, 0.073664
379.000000, 0.072923
378.000000, 0.073462
377.000000, 0.073369
376.000000, 0.072939
375.000000, 0.072810
374.000000, 0.072068
373.000000, 0.071842
372.000000, 0.070950
371.000000, 0.070333
370.000000, 0.069564
369.000000, 0.068899
368.000000, 0.068148
367.000000, 0.067762
366.000000, 0.066997
365.000000, 0.066560
364.000000, 0.066180
363.000000, 0.065882
362.000000, 0.065687
361.000000, 0.065430
360.000000, 0.065511
359.000000, 0.065153
358.000000, 0.065507
357.000000, 0.065664
356.000000, 0.066350
355.000000, 0.066900
354.000000, 0.067985
353.000000, 0.069909
352.000000, 0.071349
351.000000, 0.073577
350.000000, 0.076460
