PE UV       SUBTECH     SPECTRUM    ASCII       PEDS        4.00        
   -1
I_D_1e.Sample.asc
23/10/11
15:25:40.00
23/10/11
15:25:40.00
Analyst

350.000000
1
Lambda 35
101N2082704
PerkinElmer UV WinLab 6.0.4.0738 / Lambda35 1.24

480
2
1
0
0
Both on
1
1
1
None
0
0
0
0
 
 
0
0
0
0
0
 
 
 
0
 
0
326
0
 
0
 
 
 
0
0
0
 
0
 
 
 
0
 
 
0
0
0
0
0
 
 
 
 
0
0


0
0
#HDR
-1
-1
#GR
nm
A
1.0
0.0
700.000000
-1.000000
351
8
2.282518
-0.011212
#DATA
700.000000	-0.010739
699.000000	-0.010689
698.000000	-0.010722
697.000000	-0.010750
696.000000	-0.010754
695.000000	-0.010804
694.000000	-0.010760
693.000000	-0.010769
692.000000	-0.010803
691.000000	-0.010786
690.000000	-0.010780
689.000000	-0.010843
688.000000	-0.010807
687.000000	-0.010836
686.000000	-0.010849
685.000000	-0.010833
684.000000	-0.010983
683.000000	-0.010987
682.000000	-0.010964
681.000000	-0.010968
680.000000	-0.010976
679.000000	-0.011016
678.000000	-0.010958
677.000000	-0.011033
676.000000	-0.010969
675.000000	-0.011008
674.000000	-0.011141
673.000000	-0.011159
672.000000	-0.011137
671.000000	-0.011120
670.000000	-0.011154
669.000000	-0.011116
668.000000	-0.011206
667.000000	-0.011164
666.000000	-0.011187
665.000000	-0.011180
664.000000	-0.011199
663.000000	-0.011212
662.000000	-0.011159
661.000000	-0.011152
660.000000	-0.011197
659.000000	-0.011164
658.000000	-0.011068
657.000000	-0.011093
656.000000	-0.011080
655.000000	-0.011151
654.000000	-0.011072
653.000000	-0.011142
652.000000	-0.011109
651.000000	-0.011037
650.000000	-0.011133
649.000000	-0.011191
648.000000	-0.011124
647.000000	-0.011101
646.000000	-0.011130
645.000000	-0.011093
644.000000	-0.011204
643.000000	-0.011125
642.000000	-0.010947
641.000000	-0.010970
640.000000	-0.010918
639.000000	-0.010921
638.000000	-0.010956
637.000000	-0.010903
636.000000	-0.010866
635.000000	-0.010833
634.000000	-0.010863
633.000000	-0.010789
632.000000	-0.010768
631.000000	-0.010793
630.000000	-0.010771
629.000000	-0.010818
628.000000	-0.010702
627.000000	-0.010739
626.000000	-0.010723
625.000000	-0.010734
624.000000	-0.010707
623.000000	-0.010583
622.000000	-0.010779
621.000000	-0.010760
620.000000	-0.010744
619.000000	-0.010736
618.000000	-0.010721
617.000000	-0.010713
616.000000	-0.010641
615.000000	-0.010681
614.000000	-0.010594
613.000000	-0.010634
612.000000	-0.010628
611.000000	-0.010646
610.000000	-0.010644
609.000000	-0.010564
608.000000	-0.010599
607.000000	-0.010477
606.000000	-0.010502
605.000000	-0.010448
604.000000	-0.010409
603.000000	-0.010398
602.000000	-0.010395
601.000000	-0.010340
600.000000	-0.010290
599.000000	-0.010276
598.000000	-0.010245
597.000000	-0.010178
596.000000	-0.010083
595.000000	-0.009988
594.000000	-0.009923
593.000000	-0.009953
592.000000	-0.009856
591.000000	-0.009806
590.000000	-0.009860
589.000000	-0.009777
588.000000	-0.009747
587.000000	-0.009742
586.000000	-0.009732
585.000000	-0.009637
584.000000	-0.009752
583.000000	-0.009688
582.000000	-0.009587
581.000000	-0.009639
580.000000	-0.009686
579.000000	-0.009669
578.000000	-0.009625
577.000000	-0.009640
576.000000	-0.009533
575.000000	-0.009568
574.000000	-0.009557
573.000000	-0.009503
572.000000	-0.009486
571.000000	-0.009422
570.000000	-0.009410
569.000000	-0.009377
568.000000	-0.009281
567.000000	-0.009206
566.000000	-0.009190
565.000000	-0.009095
564.000000	-0.009116
563.000000	-0.008999
562.000000	-0.009032
561.000000	-0.008906
560.000000	-0.008875
559.000000	-0.008791
558.000000	-0.008765
557.000000	-0.008519
556.000000	-0.008504
555.000000	-0.008447
554.000000	-0.008348
553.000000	-0.008185
552.000000	-0.008123
551.000000	-0.007903
550.000000	-0.007778
549.000000	-0.007595
548.000000	-0.007370
547.000000	-0.007177
546.000000	-0.006920
545.000000	-0.006615
544.000000	-0.006326
543.000000	-0.005974
542.000000	-0.005536
541.000000	-0.004972
540.000000	-0.004390
539.000000	-0.003787
538.000000	-0.002974
537.000000	-0.002106
536.000000	-0.000948
535.000000	0.000273
534.000000	0.001811
533.000000	0.003564
532.000000	0.005722
531.000000	0.008203
530.000000	0.011282
529.000000	0.014762
528.000000	0.018967
527.000000	0.023990
526.000000	0.029933
525.000000	0.037200
524.000000	0.045710
523.000000	0.056122
522.000000	0.068528
521.000000	0.083263
520.000000	0.100952
519.000000	0.121963
518.000000	0.146965
517.000000	0.176274
516.000000	0.210851
515.000000	0.251488
514.000000	0.299182
513.000000	0.354906
512.000000	0.419463
511.000000	0.493916
510.000000	0.578520
509.000000	0.673845
508.000000	0.780410
507.000000	0.897904
506.000000	1.024838
505.000000	1.160412
504.000000	1.302153
503.000000	1.446172
502.000000	1.588338
501.000000	1.724422
500.000000	1.847550
499.000000	1.956125
498.000000	2.046280
497.000000	2.117158
496.000000	2.171999
495.000000	2.211448
494.000000	2.239432
493.000000	2.259591
492.000000	2.271474
491.000000	2.279576
490.000000	2.282518
489.000000	2.279430
488.000000	2.272247
487.000000	2.260223
486.000000	2.242768
485.000000	2.216986
484.000000	2.181860
483.000000	2.142463
482.000000	2.091451
481.000000	2.032748
480.000000	1.967196
479.000000	1.896794
478.000000	1.822364
477.000000	1.747111
476.000000	1.671670
475.000000	1.600383
474.000000	1.532271
473.000000	1.468958
472.000000	1.410836
471.000000	1.358369
470.000000	1.311252
469.000000	1.269559
468.000000	1.231630
467.000000	1.198215
466.000000	1.167320
465.000000	1.138285
464.000000	1.110312
463.000000	1.082724
462.000000	1.054953
461.000000	1.026259
460.000000	0.996230
459.000000	0.964601
458.000000	0.931152
457.000000	0.895901
456.000000	0.859354
455.000000	0.821340
454.000000	0.782096
453.000000	0.742414
452.000000	0.702546
451.000000	0.663175
450.000000	0.624479
449.000000	0.587100
448.000000	0.551107
447.000000	0.516638
446.000000	0.484330
445.000000	0.454204
444.000000	0.426048
443.000000	0.400097
442.000000	0.376335
441.000000	0.354355
440.000000	0.334315
439.000000	0.316071
438.000000	0.299334
437.000000	0.284025
436.000000	0.269454
435.000000	0.256154
434.000000	0.243601
433.000000	0.231610
432.000000	0.220147
431.000000	0.209094
430.000000	0.198413
429.000000	0.188089
428.000000	0.177953
427.000000	0.168354
426.000000	0.159024
425.000000	0.149937
424.000000	0.141247
423.000000	0.133006
422.000000	0.125093
421.000000	0.117599
420.000000	0.110406
419.000000	0.104110
418.000000	0.098250
417.000000	0.092921
416.000000	0.088100
415.000000	0.083889
414.000000	0.080009
413.000000	0.076695
412.000000	0.073775
411.000000	0.071239
410.000000	0.069178
409.000000	0.067231
408.000000	0.065791
407.000000	0.064371
406.000000	0.063349
405.000000	0.062424
404.000000	0.061659
403.000000	0.061022
402.000000	0.060482
401.000000	0.060080
400.000000	0.059720
399.000000	0.059473
398.000000	0.059375
397.000000	0.059103
396.000000	0.059117
395.000000	0.058841
394.000000	0.059043
393.000000	0.058925
392.000000	0.059123
391.000000	0.059394
390.000000	0.059610
389.000000	0.060077
388.000000	0.060420
387.000000	0.061019
386.000000	0.061582
385.000000	0.062027
384.000000	0.062478
383.000000	0.063319
382.000000	0.062967
381.000000	0.063188
380.000000	0.062927
379.000000	0.062923
378.000000	0.062808
377.000000	0.062566
376.000000	0.062450
375.000000	0.062185
374.000000	0.062156
373.000000	0.061966
372.000000	0.061616
371.000000	0.061169
370.000000	0.060716
369.000000	0.060294
368.000000	0.059585
367.000000	0.059099
366.000000	0.058563
365.000000	0.058058
364.000000	0.057630
363.000000	0.057635
362.000000	0.057346
361.000000	0.057150
360.000000	0.057031
359.000000	0.057220
358.000000	0.057460
357.000000	0.057875
356.000000	0.058397
355.000000	0.059375
354.000000	0.060381
353.000000	0.062023
352.000000	0.063926
351.000000	0.066177
350.000000	0.068908
