PE UV       SUBTECH     SPECTRUM    ASCII       PEDS        4.00        
   -1
I_D_2c.Sample.asc
23/10/11
15:41:29.00
23/10/11
15:41:29.00
Analyst

350.000000
1
Lambda 35
101N2082704
PerkinElmer UV WinLab 6.0.4.0738 / Lambda35 1.24

480
2
1
0
0
Both on
1
1
1
None
0
0
0
0
 
 
0
0
0
0
0
 
 
 
0
 
0
326
0
 
0
 
 
 
0
0
0
 
0
 
 
 
0
 
 
0
0
0
0
0
 
 
 
 
0
0


0
0
#HDR
-1
-1
#GR
nm
A
1.0
0.0
700.000000
-1.000000
351
8
2.233840
-0.009952
#DATA
700.000000	-0.009445
699.000000	-0.009484
698.000000	-0.009517
697.000000	-0.009479
696.000000	-0.009498
695.000000	-0.009573
694.000000	-0.009519
693.000000	-0.009467
692.000000	-0.009560
691.000000	-0.009533
690.000000	-0.009501
689.000000	-0.009505
688.000000	-0.009543
687.000000	-0.009546
686.000000	-0.009544
685.000000	-0.009537
684.000000	-0.009768
683.000000	-0.009807
682.000000	-0.009794
681.000000	-0.009817
680.000000	-0.009764
679.000000	-0.009809
678.000000	-0.009781
677.000000	-0.009795
676.000000	-0.009792
675.000000	-0.009800
674.000000	-0.009952
673.000000	-0.009834
672.000000	-0.009892
671.000000	-0.009824
670.000000	-0.009853
669.000000	-0.009845
668.000000	-0.009748
667.000000	-0.009755
666.000000	-0.009784
665.000000	-0.009822
664.000000	-0.009845
663.000000	-0.009817
662.000000	-0.009810
661.000000	-0.009757
660.000000	-0.009801
659.000000	-0.009778
658.000000	-0.009651
657.000000	-0.009695
656.000000	-0.009637
655.000000	-0.009666
654.000000	-0.009603
653.000000	-0.009570
652.000000	-0.009583
651.000000	-0.009566
650.000000	-0.009595
649.000000	-0.009399
648.000000	-0.009545
647.000000	-0.009531
646.000000	-0.009591
645.000000	-0.009569
644.000000	-0.009562
643.000000	-0.009498
642.000000	-0.009578
641.000000	-0.009525
640.000000	-0.009482
639.000000	-0.009444
638.000000	-0.009391
637.000000	-0.009353
636.000000	-0.009295
635.000000	-0.009205
634.000000	-0.009235
633.000000	-0.009222
632.000000	-0.009267
631.000000	-0.009209
630.000000	-0.009238
629.000000	-0.009186
628.000000	-0.009065
627.000000	-0.009142
626.000000	-0.009115
625.000000	-0.009135
624.000000	-0.009072
623.000000	-0.009065
622.000000	-0.009060
621.000000	-0.009122
620.000000	-0.009023
619.000000	-0.009066
618.000000	-0.009003
617.000000	-0.008994
616.000000	-0.008880
615.000000	-0.008913
614.000000	-0.008799
613.000000	-0.008842
612.000000	-0.008835
611.000000	-0.008821
610.000000	-0.008760
609.000000	-0.008736
608.000000	-0.008702
607.000000	-0.008588
606.000000	-0.008517
605.000000	-0.008472
604.000000	-0.008385
603.000000	-0.008319
602.000000	-0.008236
601.000000	-0.008143
600.000000	-0.008023
599.000000	-0.007955
598.000000	-0.007818
597.000000	-0.007691
596.000000	-0.007527
595.000000	-0.007435
594.000000	-0.007290
593.000000	-0.007230
592.000000	-0.007094
591.000000	-0.006954
590.000000	-0.006866
589.000000	-0.006729
588.000000	-0.006630
587.000000	-0.006477
586.000000	-0.006440
585.000000	-0.006344
584.000000	-0.006297
583.000000	-0.006233
582.000000	-0.006116
581.000000	-0.006110
580.000000	-0.006020
579.000000	-0.005972
578.000000	-0.005854
577.000000	-0.005817
576.000000	-0.005673
575.000000	-0.005567
574.000000	-0.005487
573.000000	-0.005401
572.000000	-0.005305
571.000000	-0.005252
570.000000	-0.005114
569.000000	-0.004986
568.000000	-0.004848
567.000000	-0.004736
566.000000	-0.004619
565.000000	-0.004481
564.000000	-0.004492
563.000000	-0.004380
562.000000	-0.004397
561.000000	-0.004328
560.000000	-0.004264
559.000000	-0.004153
558.000000	-0.004000
557.000000	-0.003947
556.000000	-0.003762
555.000000	-0.003662
554.000000	-0.003566
553.000000	-0.003328
552.000000	-0.003095
551.000000	-0.002909
550.000000	-0.002558
549.000000	-0.002378
548.000000	-0.001947
547.000000	-0.001532
546.000000	-0.001154
545.000000	-0.000609
544.000000	-0.000096
543.000000	0.000605
542.000000	0.001410
541.000000	0.002351
540.000000	0.003565
539.000000	0.004826
538.000000	0.006433
537.000000	0.008207
536.000000	0.010414
535.000000	0.012922
534.000000	0.016022
533.000000	0.019639
532.000000	0.024053
531.000000	0.029348
530.000000	0.035615
529.000000	0.043042
528.000000	0.051805
527.000000	0.062251
526.000000	0.074736
525.000000	0.089635
524.000000	0.107246
523.000000	0.128604
522.000000	0.153630
521.000000	0.182955
520.000000	0.217655
519.000000	0.258159
518.000000	0.305479
517.000000	0.360012
516.000000	0.422853
515.000000	0.494956
514.000000	0.577076
513.000000	0.670272
512.000000	0.774174
511.000000	0.889319
510.000000	1.014118
509.000000	1.147094
508.000000	1.286666
507.000000	1.429229
506.000000	1.569849
505.000000	1.703545
504.000000	1.824600
503.000000	1.929516
502.000000	2.015913
501.000000	2.082219
500.000000	2.130350
499.000000	2.167528
498.000000	2.193611
497.000000	2.210721
496.000000	2.223052
495.000000	2.230314
494.000000	2.233840
493.000000	2.233840
492.000000	2.229164
491.000000	2.225461
490.000000	2.214536
489.000000	2.199735
488.000000	2.179610
487.000000	2.152613
486.000000	2.119250
485.000000	2.076500
484.000000	2.025398
483.000000	1.967877
482.000000	1.902630
481.000000	1.833913
480.000000	1.762449
479.000000	1.690597
478.000000	1.620318
477.000000	1.552940
476.000000	1.489599
475.000000	1.431478
474.000000	1.378998
473.000000	1.331542
472.000000	1.288596
471.000000	1.250618
470.000000	1.216147
469.000000	1.184786
468.000000	1.155487
467.000000	1.127895
466.000000	1.100693
465.000000	1.072914
464.000000	1.044401
463.000000	1.014535
462.000000	0.983070
461.000000	0.949950
460.000000	0.914959
459.000000	0.878355
458.000000	0.840260
457.000000	0.801211
456.000000	0.761645
455.000000	0.721584
454.000000	0.681641
453.000000	0.642218
452.000000	0.603946
451.000000	0.567115
450.000000	0.531813
449.000000	0.498674
448.000000	0.467451
447.000000	0.438221
446.000000	0.411365
445.000000	0.386643
444.000000	0.364063
443.000000	0.343369
442.000000	0.324470
441.000000	0.307176
440.000000	0.291062
439.000000	0.276497
438.000000	0.262935
437.000000	0.250185
436.000000	0.238111
435.000000	0.226687
434.000000	0.215584
433.000000	0.204887
432.000000	0.194470
431.000000	0.184297
430.000000	0.174258
429.000000	0.164658
428.000000	0.155268
427.000000	0.146414
426.000000	0.138030
425.000000	0.129885
424.000000	0.122210
423.000000	0.114992
422.000000	0.108242
421.000000	0.102110
420.000000	0.096477
419.000000	0.091382
418.000000	0.086764
417.000000	0.082718
416.000000	0.079030
415.000000	0.075888
414.000000	0.073120
413.000000	0.070772
412.000000	0.068656
411.000000	0.066959
410.000000	0.065526
409.000000	0.064308
408.000000	0.063343
407.000000	0.062402
406.000000	0.061670
405.000000	0.061103
404.000000	0.060651
403.000000	0.060205
402.000000	0.059919
401.000000	0.059644
400.000000	0.059537
399.000000	0.059353
398.000000	0.059394
397.000000	0.059407
396.000000	0.059603
395.000000	0.059656
394.000000	0.059973
393.000000	0.060152
392.000000	0.060586
391.000000	0.061175
390.000000	0.061710
389.000000	0.062377
388.000000	0.063027
387.000000	0.063904
386.000000	0.064720
385.000000	0.065355
384.000000	0.066181
383.000000	0.064428
382.000000	0.064314
381.000000	0.064876
380.000000	0.064871
379.000000	0.065531
378.000000	0.065410
377.000000	0.065547
376.000000	0.065515
375.000000	0.065487
374.000000	0.065499
373.000000	0.065469
372.000000	0.065312
371.000000	0.065005
370.000000	0.064719
369.000000	0.064442
368.000000	0.063968
367.000000	0.063700
366.000000	0.063418
365.000000	0.063092
364.000000	0.063024
363.000000	0.063072
362.000000	0.063305
361.000000	0.063532
360.000000	0.063658
359.000000	0.064328
358.000000	0.064962
357.000000	0.065957
356.000000	0.067047
355.000000	0.068724
354.000000	0.070503
353.000000	0.072884
352.000000	0.075782
351.000000	0.079029
350.000000	0.082785
