PE UV       SUBTECH     SPECTRUM    ASCII       PEDS        4.00        
   -1
I_D_3c.Sample.asc
23/10/11
15:48:18.00
23/10/11
15:48:18.00
Analyst

350.000000
1
Lambda 35
101N2082704
PerkinElmer UV WinLab 6.0.4.0738 / Lambda35 1.24

480
2
1
0
0
Both on
1
1
1
None
0
0
0
0
 
 
0
0
0
0
0
 
 
 
0
 
0
326
0
 
0
 
 
 
0
0
0
 
0
 
 
 
0
 
 
0
0
0
0
0
 
 
 
 
0
0


0
0
#HDR
-1
-1
#GR
nm
A
1.0
0.0
700.000000
-1.000000
351
8
2.175848
-0.011297
#DATA
700.000000	-0.010105
699.000000	-0.010144
698.000000	-0.010222
697.000000	-0.010250
696.000000	-0.010244
695.000000	-0.010309
694.000000	-0.010255
693.000000	-0.010379
692.000000	-0.010407
691.000000	-0.010385
690.000000	-0.010474
689.000000	-0.010483
688.000000	-0.010487
687.000000	-0.010525
686.000000	-0.010554
685.000000	-0.010642
684.000000	-0.010793
683.000000	-0.010841
682.000000	-0.010819
681.000000	-0.010903
680.000000	-0.010830
679.000000	-0.010986
678.000000	-0.010922
677.000000	-0.010947
676.000000	-0.010884
675.000000	-0.010918
674.000000	-0.011091
673.000000	-0.011093
672.000000	-0.011157
671.000000	-0.011155
670.000000	-0.011209
669.000000	-0.011177
668.000000	-0.011181
667.000000	-0.011214
666.000000	-0.011207
665.000000	-0.011226
664.000000	-0.011245
663.000000	-0.011263
662.000000	-0.011240
661.000000	-0.011263
660.000000	-0.011297
659.000000	-0.011235
658.000000	-0.011129
657.000000	-0.011088
656.000000	-0.011035
655.000000	-0.011080
654.000000	-0.010991
653.000000	-0.010990
652.000000	-0.011013
651.000000	-0.010966
650.000000	-0.011047
649.000000	-0.010952
648.000000	-0.011007
647.000000	-0.010903
646.000000	-0.010892
645.000000	-0.010845
644.000000	-0.010803
643.000000	-0.010745
642.000000	-0.010734
641.000000	-0.010741
640.000000	-0.010684
639.000000	-0.010662
638.000000	-0.010666
637.000000	-0.010587
636.000000	-0.010566
635.000000	-0.010517
634.000000	-0.010542
633.000000	-0.010514
632.000000	-0.010549
631.000000	-0.010558
630.000000	-0.010572
629.000000	-0.010654
628.000000	-0.010580
627.000000	-0.010663
626.000000	-0.010702
625.000000	-0.010723
624.000000	-0.010728
623.000000	-0.010716
622.000000	-0.010728
621.000000	-0.010801
620.000000	-0.010831
619.000000	-0.010854
618.000000	-0.010839
617.000000	-0.010888
616.000000	-0.010754
615.000000	-0.010851
614.000000	-0.010759
613.000000	-0.010824
612.000000	-0.010901
611.000000	-0.010878
610.000000	-0.010866
609.000000	-0.010854
608.000000	-0.010925
607.000000	-0.010835
606.000000	-0.010849
605.000000	-0.010878
604.000000	-0.010835
603.000000	-0.010797
602.000000	-0.010769
601.000000	-0.010710
600.000000	-0.010623
599.000000	-0.010578
598.000000	-0.010428
597.000000	-0.010335
596.000000	-0.010209
595.000000	-0.010092
594.000000	-0.009991
593.000000	-0.010021
592.000000	-0.009929
591.000000	-0.009858
590.000000	-0.009818
589.000000	-0.009777
588.000000	-0.009763
587.000000	-0.009716
586.000000	-0.009700
585.000000	-0.009595
584.000000	-0.009574
583.000000	-0.009541
582.000000	-0.009487
581.000000	-0.009519
580.000000	-0.009539
579.000000	-0.009475
578.000000	-0.009463
577.000000	-0.009441
576.000000	-0.009423
575.000000	-0.009396
574.000000	-0.009411
573.000000	-0.009314
572.000000	-0.009287
571.000000	-0.009265
570.000000	-0.009190
569.000000	-0.009163
568.000000	-0.009051
567.000000	-0.008970
566.000000	-0.008928
565.000000	-0.008864
564.000000	-0.008834
563.000000	-0.008743
562.000000	-0.008723
561.000000	-0.008618
560.000000	-0.008571
559.000000	-0.008388
558.000000	-0.008231
557.000000	-0.008131
556.000000	-0.007995
555.000000	-0.007881
554.000000	-0.007734
553.000000	-0.007487
552.000000	-0.007314
551.000000	-0.007026
550.000000	-0.006779
549.000000	-0.006501
548.000000	-0.006164
547.000000	-0.005807
546.000000	-0.005369
545.000000	-0.004831
544.000000	-0.004254
543.000000	-0.003539
542.000000	-0.002700
541.000000	-0.001811
540.000000	-0.000605
539.000000	0.000584
538.000000	0.002180
537.000000	0.004006
536.000000	0.006235
535.000000	0.008838
534.000000	0.011947
533.000000	0.015680
532.000000	0.020035
531.000000	0.025366
530.000000	0.031708
529.000000	0.039243
528.000000	0.048060
527.000000	0.058716
526.000000	0.071324
525.000000	0.086366
524.000000	0.104211
523.000000	0.125717
522.000000	0.151013
521.000000	0.180627
520.000000	0.215627
519.000000	0.256389
518.000000	0.304003
517.000000	0.358941
516.000000	0.421999
515.000000	0.494283
514.000000	0.576406
513.000000	0.669466
512.000000	0.772896
511.000000	0.887196
510.000000	1.010627
509.000000	1.141759
508.000000	1.278506
507.000000	1.417514
506.000000	1.553155
505.000000	1.681241
504.000000	1.797044
503.000000	1.895142
502.000000	1.974825
501.000000	2.037049
500.000000	2.082122
499.000000	2.116640
498.000000	2.139750
497.000000	2.155590
496.000000	2.166416
495.000000	2.172781
494.000000	2.175848
493.000000	2.175039
492.000000	2.170143
491.000000	2.163737
490.000000	2.154223
489.000000	2.139074
488.000000	2.119375
487.000000	2.093086
486.000000	2.059482
485.000000	2.018025
484.000000	1.967478
483.000000	1.910514
482.000000	1.847840
481.000000	1.781122
480.000000	1.711645
479.000000	1.642376
478.000000	1.575081
477.000000	1.510212
476.000000	1.448754
475.000000	1.393518
474.000000	1.342542
473.000000	1.296770
472.000000	1.255696
471.000000	1.218841
470.000000	1.185618
469.000000	1.155289
468.000000	1.126968
467.000000	1.100104
466.000000	1.073364
465.000000	1.046119
464.000000	1.018050
463.000000	0.988807
462.000000	0.957783
461.000000	0.925169
460.000000	0.890718
459.000000	0.854634
458.000000	0.817352
457.000000	0.778864
456.000000	0.740130
455.000000	0.701030
454.000000	0.661889
453.000000	0.623444
452.000000	0.586065
451.000000	0.550108
450.000000	0.515728
449.000000	0.483362
448.000000	0.452979
447.000000	0.424528
446.000000	0.398424
445.000000	0.374447
444.000000	0.352463
443.000000	0.332277
442.000000	0.314037
441.000000	0.296883
440.000000	0.281360
439.000000	0.267223
438.000000	0.253902
437.000000	0.241546
436.000000	0.229743
435.000000	0.218580
434.000000	0.207767
433.000000	0.197242
432.000000	0.187013
431.000000	0.177110
430.000000	0.167420
429.000000	0.157958
428.000000	0.148864
427.000000	0.140176
426.000000	0.131903
425.000000	0.123870
424.000000	0.116343
423.000000	0.109298
422.000000	0.102648
421.000000	0.096616
420.000000	0.091093
419.000000	0.086074
418.000000	0.081557
417.000000	0.077554
416.000000	0.073948
415.000000	0.070959
414.000000	0.068176
413.000000	0.065913
412.000000	0.063846
411.000000	0.062211
410.000000	0.060806
409.000000	0.059747
408.000000	0.058811
407.000000	0.058005
406.000000	0.057393
405.000000	0.056768
404.000000	0.056414
403.000000	0.056060
402.000000	0.055795
401.000000	0.055535
400.000000	0.055453
399.000000	0.055364
398.000000	0.055468
397.000000	0.055473
396.000000	0.055706
395.000000	0.055781
394.000000	0.056102
393.000000	0.056387
392.000000	0.056804
391.000000	0.057420
390.000000	0.057943
389.000000	0.058635
388.000000	0.059305
387.000000	0.060175
386.000000	0.060979
385.000000	0.061658
384.000000	0.062522
383.000000	0.060619
382.000000	0.060464
381.000000	0.061067
380.000000	0.061290
379.000000	0.061637
378.000000	0.061670
377.000000	0.061791
376.000000	0.061727
375.000000	0.061865
374.000000	0.061599
373.000000	0.061614
372.000000	0.061303
371.000000	0.060990
370.000000	0.060633
369.000000	0.060236
368.000000	0.059840
367.000000	0.059399
366.000000	0.059169
365.000000	0.058811
364.000000	0.058677
363.000000	0.058779
362.000000	0.058790
361.000000	0.059081
360.000000	0.059297
359.000000	0.059900
358.000000	0.060601
357.000000	0.061500
356.000000	0.062613
355.000000	0.064158
354.000000	0.065841
353.000000	0.068319
352.000000	0.070977
351.000000	0.074419
350.000000	0.078242
