PE UV       SUBTECH     SPECTRUM    ASCII       PEDS        4.00        
   -1
I_D_1a.Sample.asc
23/10/11
15:30:21.00
23/10/11
15:30:21.00
Analyst

350.000000
1
Lambda 35
101N2082704
PerkinElmer UV WinLab 6.0.4.0738 / Lambda35 1.24

480
2
1
0
0
Both on
1
1
1
None
0
0
0
0
 
 
0
0
0
0
0
 
 
 
0
 
0
326
0
 
0
 
 
 
0
0
0
 
0
 
 
 
0
 
 
0
0
0
0
0
 
 
 
 
0
0


0
0
#HDR
-1
-1
#GR
nm
A
1.0
0.0
700.000000
-1.000000
351
8
2.312555
-0.004899
#DATA
700.000000	-0.004508
699.000000	-0.004555
698.000000	-0.004577
697.000000	-0.004492
696.000000	-0.004499
695.000000	-0.004567
694.000000	-0.004496
693.000000	-0.004544
692.000000	-0.004495
691.000000	-0.004455
690.000000	-0.004518
689.000000	-0.004499
688.000000	-0.004562
687.000000	-0.004522
686.000000	-0.004509
685.000000	-0.004444
684.000000	-0.004726
683.000000	-0.004773
682.000000	-0.004774
681.000000	-0.004771
680.000000	-0.004711
679.000000	-0.004759
678.000000	-0.004729
677.000000	-0.004772
676.000000	-0.004717
675.000000	-0.004734
674.000000	-0.004834
673.000000	-0.004840
672.000000	-0.004836
671.000000	-0.004792
670.000000	-0.004824
669.000000	-0.004779
668.000000	-0.004899
667.000000	-0.004808
666.000000	-0.004830
665.000000	-0.004790
664.000000	-0.004797
663.000000	-0.004762
662.000000	-0.004692
661.000000	-0.004683
660.000000	-0.004644
659.000000	-0.004624
658.000000	-0.004496
657.000000	-0.004534
656.000000	-0.004489
655.000000	-0.004506
654.000000	-0.004440
653.000000	-0.004483
652.000000	-0.004438
651.000000	-0.004424
650.000000	-0.004477
649.000000	-0.004421
648.000000	-0.004392
647.000000	-0.004372
646.000000	-0.004348
645.000000	-0.004355
644.000000	-0.004346
643.000000	-0.004187
642.000000	-0.004241
641.000000	-0.004175
640.000000	-0.004171
639.000000	-0.004095
638.000000	-0.004112
637.000000	-0.004098
636.000000	-0.003996
635.000000	-0.003965
634.000000	-0.003905
633.000000	-0.003942
632.000000	-0.003908
631.000000	-0.003935
630.000000	-0.003879
629.000000	-0.003887
628.000000	-0.003804
627.000000	-0.003859
626.000000	-0.003782
625.000000	-0.003810
624.000000	-0.003713
623.000000	-0.003470
622.000000	-0.003513
621.000000	-0.003474
620.000000	-0.003418
619.000000	-0.003421
618.000000	-0.003334
617.000000	-0.003284
616.000000	-0.003139
615.000000	-0.003183
614.000000	-0.003023
613.000000	-0.003093
612.000000	-0.003138
611.000000	-0.003151
610.000000	-0.003106
609.000000	-0.003035
608.000000	-0.003069
607.000000	-0.003008
606.000000	-0.003042
605.000000	-0.002997
604.000000	-0.002994
603.000000	-0.002976
602.000000	-0.002946
601.000000	-0.002922
600.000000	-0.002792
599.000000	-0.002804
598.000000	-0.002641
597.000000	-0.002706
596.000000	-0.002596
595.000000	-0.002592
594.000000	-0.002529
593.000000	-0.002551
592.000000	-0.002488
591.000000	-0.002408
590.000000	-0.002393
589.000000	-0.002281
588.000000	-0.002319
587.000000	-0.002260
586.000000	-0.002266
585.000000	-0.002169
584.000000	-0.002175
583.000000	-0.002127
582.000000	-0.002089
581.000000	-0.002094
580.000000	-0.002115
579.000000	-0.002062
578.000000	-0.002061
577.000000	-0.002088
576.000000	-0.001928
575.000000	-0.001943
574.000000	-0.001938
573.000000	-0.001884
572.000000	-0.001809
571.000000	-0.001708
570.000000	-0.001676
569.000000	-0.001681
568.000000	-0.001563
567.000000	-0.001472
566.000000	-0.001430
565.000000	-0.001366
564.000000	-0.001345
563.000000	-0.001227
562.000000	-0.001201
561.000000	-0.001137
560.000000	-0.001046
559.000000	-0.000945
558.000000	-0.000774
557.000000	-0.000737
556.000000	-0.000603
555.000000	-0.000491
554.000000	-0.000385
553.000000	-0.000214
552.000000	-0.000075
551.000000	0.000086
550.000000	0.000305
549.000000	0.000476
548.000000	0.000760
547.000000	0.000958
546.000000	0.001200
545.000000	0.001570
544.000000	0.001861
543.000000	0.002248
542.000000	0.002749
541.000000	0.003262
540.000000	0.003872
539.000000	0.004474
538.000000	0.005325
537.000000	0.006218
536.000000	0.007323
535.000000	0.008635
534.000000	0.010143
533.000000	0.011954
532.000000	0.014123
531.000000	0.016675
530.000000	0.019660
529.000000	0.023238
528.000000	0.027500
527.000000	0.032584
526.000000	0.038626
525.000000	0.045940
524.000000	0.054536
523.000000	0.065091
522.000000	0.077632
521.000000	0.092468
520.000000	0.110470
519.000000	0.131647
518.000000	0.156891
517.000000	0.186673
516.000000	0.221668
515.000000	0.262949
514.000000	0.311312
513.000000	0.368110
512.000000	0.433770
511.000000	0.509613
510.000000	0.595883
509.000000	0.693185
508.000000	0.801965
507.000000	0.922129
506.000000	1.051803
505.000000	1.190782
504.000000	1.335638
503.000000	1.482784
502.000000	1.627707
501.000000	1.766129
500.000000	1.889817
499.000000	1.998642
498.000000	2.087192
497.000000	2.155590
496.000000	2.207967
495.000000	2.244310
494.000000	2.272556
493.000000	2.291171
492.000000	2.300717
491.000000	2.310496
490.000000	2.312555
489.000000	2.311457
488.000000	2.305914
487.000000	2.295067
486.000000	2.279268
485.000000	2.256155
484.000000	2.225066
483.000000	2.188388
482.000000	2.139441
481.000000	2.083463
480.000000	2.019984
479.000000	1.951807
478.000000	1.878356
477.000000	1.802560
476.000000	1.726656
475.000000	1.654108
474.000000	1.585043
473.000000	1.520450
472.000000	1.461011
471.000000	1.407097
470.000000	1.358557
469.000000	1.315586
468.000000	1.276812
467.000000	1.242562
466.000000	1.210701
465.000000	1.180900
464.000000	1.152176
463.000000	1.124018
462.000000	1.095572
461.000000	1.066279
460.000000	1.035488
459.000000	1.002990
458.000000	0.968889
457.000000	0.932841
456.000000	0.895320
455.000000	0.856275
454.000000	0.815954
453.000000	0.775215
452.000000	0.734216
451.000000	0.693617
450.000000	0.653778
449.000000	0.615249
448.000000	0.578095
447.000000	0.542603
446.000000	0.509360
445.000000	0.478057
444.000000	0.449200
443.000000	0.422369
442.000000	0.397764
441.000000	0.375159
440.000000	0.354408
439.000000	0.335711
438.000000	0.318402
437.000000	0.302616
436.000000	0.287805
435.000000	0.274085
434.000000	0.261073
433.000000	0.248616
432.000000	0.236901
431.000000	0.225547
430.000000	0.214596
429.000000	0.203923
428.000000	0.193498
427.000000	0.183664
426.000000	0.174084
425.000000	0.164778
424.000000	0.155837
423.000000	0.147318
422.000000	0.139296
421.000000	0.131510
420.000000	0.124152
419.000000	0.117676
418.000000	0.111655
417.000000	0.106235
416.000000	0.101259
415.000000	0.096856
414.000000	0.092923
413.000000	0.089589
412.000000	0.086643
411.000000	0.084085
410.000000	0.081810
409.000000	0.079867
408.000000	0.078325
407.000000	0.077010
406.000000	0.075900
405.000000	0.074955
404.000000	0.074253
403.000000	0.073567
402.000000	0.073031
401.000000	0.072639
400.000000	0.072252
399.000000	0.072044
398.000000	0.071872
397.000000	0.071732
396.000000	0.071738
395.000000	0.071500
394.000000	0.071608
393.000000	0.071571
392.000000	0.071840
391.000000	0.072073
390.000000	0.072408
389.000000	0.072812
388.000000	0.073244
387.000000	0.073870
386.000000	0.074475
385.000000	0.074949
384.000000	0.075405
383.000000	0.076666
382.000000	0.076197
381.000000	0.076157
380.000000	0.075914
379.000000	0.075898
378.000000	0.075766
377.000000	0.075691
376.000000	0.075431
375.000000	0.075338
374.000000	0.075137
373.000000	0.074864
372.000000	0.074570
371.000000	0.074097
370.000000	0.073686
369.000000	0.073275
368.000000	0.072645
367.000000	0.072193
366.000000	0.071699
365.000000	0.071171
364.000000	0.070739
363.000000	0.070597
362.000000	0.070516
361.000000	0.070364
360.000000	0.070296
359.000000	0.070558
358.000000	0.070764
357.000000	0.071294
356.000000	0.071779
355.000000	0.072886
354.000000	0.074079
353.000000	0.075577
352.000000	0.077740
351.000000	0.080018
350.000000	0.082887
