PE UV       SUBTECH     SPECTRUM    ASCII       PEDS        4.00        
   -1
Buff_52.2.Sample.asc
23/09/27
18:31:31.00
23/09/27
18:31:31.00
Analyst

200.000000
1
Lambda 35
101N2082704
PerkinElmer UV WinLab 6.0.4.0738 / Lambda35 1.24

480
2
1
0
0
Both on
1
1
1
None
0
0
0
0
 
 
0
0
0
0
0
 
 
 
0
 
0
326
0
 
0
 
 
 
0
0
0
 
0
 
 
 
0
 
 
0
0
0
0
0
 
 
 
 
0
0


0
0
#HDR
-1
-1
#GR
nm
A
1.0
0.0
700.000000
-1.000000
501
8
10.000000
-0.019887
#DATA
700.000000	-0.019158
699.000000	-0.019351
698.000000	-0.019207
697.000000	-0.019395
696.000000	-0.019294
695.000000	-0.019436
694.000000	-0.019307
693.000000	-0.019452
692.000000	-0.019284
691.000000	-0.019446
690.000000	-0.019339
689.000000	-0.019417
688.000000	-0.019430
687.000000	-0.019501
686.000000	-0.019373
685.000000	-0.019530
684.000000	-0.019433
683.000000	-0.019863
682.000000	-0.019717
681.000000	-0.019881
680.000000	-0.019674
679.000000	-0.019819
678.000000	-0.019677
677.000000	-0.019861
676.000000	-0.019567
675.000000	-0.019887
674.000000	-0.019644
673.000000	-0.019781
672.000000	-0.019626
671.000000	-0.019776
670.000000	-0.019611
669.000000	-0.019773
668.000000	-0.019690
667.000000	-0.019697
666.000000	-0.019590
665.000000	-0.019637
664.000000	-0.019531
663.000000	-0.019478
662.000000	-0.019483
661.000000	-0.019361
660.000000	-0.019265
659.000000	-0.019226
658.000000	-0.019125
657.000000	-0.019122
656.000000	-0.018942
655.000000	-0.018935
654.000000	-0.018815
653.000000	-0.018837
652.000000	-0.018727
651.000000	-0.018534
650.000000	-0.018438
649.000000	-0.018448
648.000000	-0.018221
647.000000	-0.018280
646.000000	-0.018028
645.000000	-0.018020
644.000000	-0.017849
643.000000	-0.017597
642.000000	-0.017467
641.000000	-0.017366
640.000000	-0.017057
639.000000	-0.016842
638.000000	-0.016699
637.000000	-0.016489
636.000000	-0.016329
635.000000	-0.015944
634.000000	-0.015682
633.000000	-0.015448
632.000000	-0.015008
631.000000	-0.014703
630.000000	-0.014262
629.000000	-0.013837
628.000000	-0.013470
627.000000	-0.012849
626.000000	-0.012409
625.000000	-0.011812
624.000000	-0.011145
623.000000	-0.010494
622.000000	-0.009742
621.000000	-0.008980
620.000000	-0.008055
619.000000	-0.007042
618.000000	-0.006220
617.000000	-0.004763
616.000000	-0.003731
615.000000	-0.002453
614.000000	-0.000986
613.000000	0.000679
612.000000	0.002252
611.000000	0.004156
610.000000	0.006208
609.000000	0.008787
608.000000	0.011234
607.000000	0.014278
606.000000	0.016835
605.000000	0.021035
604.000000	0.024984
603.000000	0.029497
602.000000	0.034268
601.000000	0.039817
600.000000	0.045815
599.000000	0.052758
598.000000	0.060364
597.000000	0.068988
596.000000	0.078405
595.000000	0.088966
594.000000	0.100546
593.000000	0.113246
592.000000	0.127383
591.000000	0.143125
590.000000	0.160142
589.000000	0.178741
588.000000	0.198820
587.000000	0.220940
586.000000	0.244603
585.000000	0.270557
584.000000	0.298163
583.000000	0.328585
582.000000	0.360513
581.000000	0.395097
580.000000	0.431799
579.000000	0.470419
578.000000	0.510627
577.000000	0.552916
576.000000	0.596609
575.000000	0.641999
574.000000	0.688121
573.000000	0.736535
572.000000	0.785098
571.000000	0.834402
570.000000	0.883922
569.000000	0.933389
568.000000	0.981467
567.000000	1.029255
566.000000	1.075412
565.000000	1.119738
564.000000	1.162134
563.000000	1.202273
562.000000	1.241160
561.000000	1.275612
560.000000	1.308269
559.000000	1.344334
558.000000	1.370248
557.000000	1.395366
556.000000	1.416800
555.000000	1.435779
554.000000	1.452706
553.000000	1.468317
552.000000	1.480751
551.000000	1.492274
550.000000	1.500607
549.000000	1.509104
548.000000	1.515354
547.000000	1.520740
546.000000	1.525983
545.000000	1.531071
544.000000	1.534904
543.000000	1.538666
542.000000	1.543756
541.000000	1.548270
540.000000	1.553779
539.000000	1.557959
538.000000	1.564641
537.000000	1.570198
536.000000	1.578806
535.000000	1.584929
534.000000	1.593808
533.000000	1.601530
532.000000	1.610850
531.000000	1.617382
530.000000	1.627614
529.000000	1.635271
528.000000	1.644535
527.000000	1.651327
526.000000	1.658654
525.000000	1.665440
524.000000	1.670841
523.000000	1.675164
522.000000	1.680075
521.000000	1.684446
520.000000	1.686669
519.000000	1.687738
518.000000	1.687985
517.000000	1.688352
516.000000	1.686646
515.000000	1.684470
514.000000	1.681987
513.000000	1.680128
512.000000	1.675568
511.000000	1.673001
510.000000	1.667770
509.000000	1.664837
508.000000	1.660114
507.000000	1.655338
506.000000	1.651744
505.000000	1.649186
504.000000	1.645294
503.000000	1.641644
502.000000	1.637893
501.000000	1.635127
500.000000	1.632251
499.000000	1.627349
498.000000	1.626723
497.000000	1.622224
496.000000	1.621064
495.000000	1.615175
494.000000	1.613501
493.000000	1.608432
492.000000	1.607049
491.000000	1.600882
490.000000	1.599026
489.000000	1.593718
488.000000	1.591914
487.000000	1.587120
486.000000	1.583885
485.000000	1.579941
484.000000	1.577223
483.000000	1.572404
482.000000	1.571039
481.000000	1.568166
480.000000	1.564969
479.000000	1.562303
478.000000	1.558880
477.000000	1.557342
476.000000	1.554464
475.000000	1.552369
474.000000	1.549653
473.000000	1.549089
472.000000	1.545927
471.000000	1.545416
470.000000	1.542826
469.000000	1.541474
468.000000	1.537034
467.000000	1.534527
466.000000	1.532420
465.000000	1.530397
464.000000	1.526962
463.000000	1.524117
462.000000	1.520294
461.000000	1.515659
460.000000	1.513241
459.000000	1.507944
458.000000	1.505504
457.000000	1.500187
456.000000	1.496192
455.000000	1.489940
454.000000	1.487039
453.000000	1.479349
452.000000	1.475585
451.000000	1.466520
450.000000	1.463811
449.000000	1.457382
448.000000	1.451802
447.000000	1.444959
446.000000	1.441028
445.000000	1.432663
444.000000	1.427598
443.000000	1.419400
442.000000	1.414160
441.000000	1.410063
440.000000	1.400995
439.000000	1.396850
438.000000	1.390024
437.000000	1.383949
436.000000	1.377106
435.000000	1.371047
434.000000	1.363927
433.000000	1.360807
432.000000	1.353808
431.000000	1.347826
430.000000	1.340112
429.000000	1.336192
428.000000	1.329851
427.000000	1.322601
426.000000	1.318392
425.000000	1.312718
424.000000	1.305905
423.000000	1.301380
422.000000	1.295145
421.000000	1.289432
420.000000	1.282973
419.000000	1.276868
418.000000	1.271110
417.000000	1.264799
416.000000	1.258234
415.000000	1.251468
414.000000	1.244496
413.000000	1.237543
412.000000	1.230011
411.000000	1.222539
410.000000	1.213991
409.000000	1.206843
408.000000	1.197808
407.000000	1.189868
406.000000	1.180228
405.000000	1.171300
404.000000	1.161448
403.000000	1.151342
402.000000	1.140959
401.000000	1.130164
400.000000	1.119184
399.000000	1.107350
398.000000	1.095521
397.000000	1.082893
396.000000	1.070671
395.000000	1.056750
394.000000	1.043681
393.000000	1.029427
392.000000	1.015346
391.000000	0.999681
390.000000	0.985517
389.000000	0.969827
388.000000	0.954835
387.000000	0.938419
386.000000	0.922700
385.000000	0.906454
384.000000	0.890230
383.000000	0.870721
382.000000	0.851882
381.000000	0.835295
380.000000	0.818353
379.000000	0.799516
378.000000	0.784755
377.000000	0.767790
376.000000	0.753300
375.000000	0.734998
374.000000	0.719908
373.000000	0.702302
372.000000	0.685771
371.000000	0.667950
370.000000	0.654740
369.000000	0.636919
368.000000	0.622558
367.000000	0.606022
366.000000	0.591619
365.000000	0.575665
364.000000	0.561986
363.000000	0.545441
362.000000	0.533086
361.000000	0.518681
360.000000	0.505191
359.000000	0.491172
358.000000	0.479189
357.000000	0.466534
356.000000	0.453393
355.000000	0.440829
354.000000	0.429666
353.000000	0.418762
352.000000	0.406055
351.000000	0.396141
350.000000	0.384570
349.000000	0.375721
348.000000	0.364595
347.000000	0.356173
346.000000	0.346202
345.000000	0.338521
344.000000	0.330124
343.000000	0.323053
342.000000	0.314924
341.000000	0.308221
340.000000	0.303279
339.000000	0.297794
338.000000	0.293707
337.000000	0.291426
336.000000	0.289372
335.000000	0.288914
334.000000	0.288783
333.000000	0.288664
332.000000	0.292979
331.000000	0.292394
330.000000	0.295286
329.000000	0.295644
328.000000	0.298829
327.000000	0.296782
326.000000	0.294550
325.000000	0.294495
324.000000	0.294760
323.000000	0.295852
322.000000	0.297295
321.000000	0.299528
320.000000	0.301807
319.000000	0.304895
318.000000	0.307854
317.000000	0.310385
316.000000	0.312712
315.000000	0.314610
314.000000	0.317367
313.000000	0.318627
312.000000	0.321635
311.000000	0.324555
310.000000	0.328965
309.000000	0.333799
308.000000	0.340583
307.000000	0.347977
306.000000	0.358660
305.000000	0.370501
304.000000	0.385684
303.000000	0.402252
302.000000	0.421867
301.000000	0.444053
300.000000	0.467703
299.000000	0.490826
298.000000	0.511610
297.000000	0.530314
296.000000	0.539920
295.000000	0.548562
294.000000	0.546417
293.000000	0.558861
292.000000	0.559463
291.000000	0.568584
290.000000	0.574714
289.000000	0.575453
288.000000	0.575590
287.000000	0.584767
286.000000	0.587915
285.000000	0.560216
284.000000	0.617893
283.000000	0.422272
282.000000	0.995521
281.000000	0.423629
280.000000	1.265700
279.000000	0.474087
278.000000	1.097955
277.000000	0.509484
276.000000	1.089748
275.000000	0.396373
274.000000	0.719486
273.000000	0.472376
272.000000	0.559451
271.000000	0.816326
270.000000	1.943159
269.000000	0.583783
268.000000	0.558718
267.000000	0.538196
266.000000	0.321482
265.000000	1.561848
264.000000	0.311283
263.000000	1.099148
262.000000	0.537459
261.000000	10.000000
260.000000	0.496281
259.000000	0.626440
258.000000	0.379456
257.000000	10.000000
256.000000	0.544205
255.000000	1.145670
254.000000	0.544792
253.000000	10.000000
252.000000	0.921476
251.000000	0.410507
250.000000	1.533525
249.000000	0.931723
248.000000	10.000000
247.000000	0.493473
246.000000	10.000000
245.000000	0.295710
244.000000	10.000000
243.000000	0.232169
242.000000	1.273597
241.000000	2.474409
240.000000	1.539834
239.000000	0.993355
238.000000	2.681673
237.000000	0.922265
236.000000	0.583879
235.000000	0.405672
234.000000	0.727036
233.000000	10.000000
232.000000	0.483054
231.000000	10.000000
230.000000	0.338840
229.000000	10.000000
228.000000	0.632351
227.000000	1.531901
226.000000	0.269422
225.000000	10.000000
224.000000	2.472660
223.000000	10.000000
222.000000	1.265742
221.000000	10.000000
220.000000	0.779885
219.000000	0.361611
218.000000	1.058304
217.000000	0.593000
216.000000	10.000000
215.000000	0.636793
214.000000	10.000000
213.000000	0.841456
212.000000	10.000000
211.000000	0.146105
210.000000	1.549614
209.000000	0.383545
208.000000	10.000000
207.000000	0.556699
206.000000	10.000000
205.000000	10.000000
204.000000	0.833704
203.000000	0.412652
202.000000	10.000000
201.000000	0.873253
200.000000	10.000000
