PE UV       SUBTECH     SPECTRUM    ASCII       PEDS        4.00        
   -1
Buff_50.2.Sample.Raw.asc
23/09/27
18:21:25.00
23/09/27
18:21:25.00
Analyst

200.000000
1
Lambda 35
101N2082704
PerkinElmer UV WinLab 6.0.4.0738 / Lambda35 1.24

480
2
1
0
0
Both on
1
1
1
None
0
0
0
0
 
 
0
0
0
0
0
 
 
 
0
 
0
326
0
 
0
 
 
 
0
0
0
 
0
 
 
 
0
 
 
0
0
0
0
0
 
 
 
 
0
0


0
0
#HDR
-1
-1
#GR
nm
A
1.0
0.0
700.000000
-1.000000
501
8
10.000000
-0.009947
#DATA
700.000000	-0.009635
699.000000	-0.009617
698.000000	-0.009636
697.000000	-0.009651
696.000000	-0.009690
695.000000	-0.009651
694.000000	-0.009656
693.000000	-0.009737
692.000000	-0.009614
691.000000	-0.009622
690.000000	-0.009646
689.000000	-0.009746
688.000000	-0.009690
687.000000	-0.009698
686.000000	-0.009656
685.000000	-0.009746
684.000000	-0.009696
683.000000	-0.009899
682.000000	-0.009815
681.000000	-0.009947
680.000000	-0.009795
679.000000	-0.009875
678.000000	-0.009752
677.000000	-0.009812
676.000000	-0.009674
675.000000	-0.009890
674.000000	-0.009747
673.000000	-0.009769
672.000000	-0.009728
671.000000	-0.009840
670.000000	-0.009699
669.000000	-0.009722
668.000000	-0.009734
667.000000	-0.009678
666.000000	-0.009584
665.000000	-0.009678
664.000000	-0.009540
663.000000	-0.009441
662.000000	-0.009391
661.000000	-0.009436
660.000000	-0.009132
659.000000	-0.009218
658.000000	-0.009046
657.000000	-0.009121
656.000000	-0.008736
655.000000	-0.008941
654.000000	-0.008620
653.000000	-0.008729
652.000000	-0.008538
651.000000	-0.008579
650.000000	-0.008257
649.000000	-0.008334
648.000000	-0.008097
647.000000	-0.008028
646.000000	-0.007759
645.000000	-0.007877
644.000000	-0.007511
643.000000	-0.007377
642.000000	-0.007206
641.000000	-0.007043
640.000000	-0.006704
639.000000	-0.006560
638.000000	-0.006330
637.000000	-0.006064
636.000000	-0.005775
635.000000	-0.005468
634.000000	-0.005168
633.000000	-0.004931
632.000000	-0.004399
631.000000	-0.004058
630.000000	-0.003466
629.000000	-0.003104
628.000000	-0.002521
627.000000	-0.002034
626.000000	-0.001295
625.000000	-0.000693
624.000000	0.000129
623.000000	0.000864
622.000000	0.001795
621.000000	0.002619
620.000000	0.003726
619.000000	0.004801
618.000000	0.005827
617.000000	0.007423
616.000000	0.008736
615.000000	0.010291
614.000000	0.012015
613.000000	0.013820
612.000000	0.015872
611.000000	0.017998
610.000000	0.020439
609.000000	0.023314
608.000000	0.026219
607.000000	0.029642
606.000000	0.033292
605.000000	0.037433
604.000000	0.042059
603.000000	0.047118
602.000000	0.052657
601.000000	0.059086
600.000000	0.065974
599.000000	0.073986
598.000000	0.082654
597.000000	0.092444
596.000000	0.103246
595.000000	0.115221
594.000000	0.128492
593.000000	0.143129
592.000000	0.159340
591.000000	0.177162
590.000000	0.196647
589.000000	0.217778
588.000000	0.240675
587.000000	0.265856
586.000000	0.292965
585.000000	0.322378
584.000000	0.353934
583.000000	0.388319
582.000000	0.424835
581.000000	0.464401
580.000000	0.505894
579.000000	0.549767
578.000000	0.595417
577.000000	0.643380
576.000000	0.693230
575.000000	0.744602
574.000000	0.796868
573.000000	0.851538
572.000000	0.906496
571.000000	0.962576
570.000000	1.018231
569.000000	1.074303
568.000000	1.128484
567.000000	1.182353
566.000000	1.234069
565.000000	1.284187
564.000000	1.330939
563.000000	1.376764
562.000000	1.418261
561.000000	1.458443
560.000000	1.493040
559.000000	1.535245
558.000000	1.565717
557.000000	1.591946
556.000000	1.616942
555.000000	1.636945
554.000000	1.657340
553.000000	1.672763
552.000000	1.688418
551.000000	1.699973
550.000000	1.710505
549.000000	1.718720
548.000000	1.726289
547.000000	1.730676
546.000000	1.738022
545.000000	1.743445
544.000000	1.747921
543.000000	1.751155
542.000000	1.757283
541.000000	1.762296
540.000000	1.765875
539.000000	1.772701
538.000000	1.777698
537.000000	1.786830
536.000000	1.792009
535.000000	1.802083
534.000000	1.807742
533.000000	1.819166
532.000000	1.825480
531.000000	1.834929
530.000000	1.842098
529.000000	1.852635
528.000000	1.860262
527.000000	1.870092
526.000000	1.875390
525.000000	1.882480
524.000000	1.886728
523.000000	1.889653
522.000000	1.895277
521.000000	1.897415
520.000000	1.899031
519.000000	1.900476
518.000000	1.899672
517.000000	1.897541
516.000000	1.895965
515.000000	1.888247
514.000000	1.887033
513.000000	1.880672
512.000000	1.876864
511.000000	1.868002
510.000000	1.863896
509.000000	1.855344
508.000000	1.850944
507.000000	1.839418
506.000000	1.837381
505.000000	1.827774
504.000000	1.821947
503.000000	1.813859
502.000000	1.809923
501.000000	1.800714
500.000000	1.794939
499.000000	1.784472
498.000000	1.779877
497.000000	1.772074
496.000000	1.765032
495.000000	1.755763
494.000000	1.747650
493.000000	1.738911
492.000000	1.730345
491.000000	1.719844
490.000000	1.710252
489.000000	1.701951
488.000000	1.691515
487.000000	1.682117
486.000000	1.671295
485.000000	1.664179
484.000000	1.653457
483.000000	1.642594
482.000000	1.633463
481.000000	1.625862
480.000000	1.616051
479.000000	1.608721
478.000000	1.599003
477.000000	1.591126
476.000000	1.583125
475.000000	1.573205
474.000000	1.566398
473.000000	1.559677
472.000000	1.551514
471.000000	1.544165
470.000000	1.537170
469.000000	1.528363
468.000000	1.522352
467.000000	1.512215
466.000000	1.506582
465.000000	1.498658
464.000000	1.491776
463.000000	1.481467
462.000000	1.475216
461.000000	1.465871
460.000000	1.458962
459.000000	1.447440
458.000000	1.442022
457.000000	1.432058
456.000000	1.424509
455.000000	1.414588
454.000000	1.406204
453.000000	1.397077
452.000000	1.388225
451.000000	1.378439
450.000000	1.370510
449.000000	1.362217
448.000000	1.352914
447.000000	1.344363
446.000000	1.334640
445.000000	1.327739
444.000000	1.317245
443.000000	1.309114
442.000000	1.300875
441.000000	1.293916
440.000000	1.284039
439.000000	1.277273
438.000000	1.268417
437.000000	1.262357
436.000000	1.252935
435.000000	1.245444
434.000000	1.238097
433.000000	1.232456
432.000000	1.223983
431.000000	1.217615
430.000000	1.209686
429.000000	1.202932
428.000000	1.196519
427.000000	1.188371
426.000000	1.182152
425.000000	1.176266
424.000000	1.169425
423.000000	1.162665
422.000000	1.156620
421.000000	1.150327
420.000000	1.143288
419.000000	1.137019
418.000000	1.130401
417.000000	1.124366
416.000000	1.116988
415.000000	1.111181
414.000000	1.103463
413.000000	1.097021
412.000000	1.089899
411.000000	1.083082
410.000000	1.074884
409.000000	1.068149
408.000000	1.060178
407.000000	1.052698
406.000000	1.044138
405.000000	1.036199
404.000000	1.026864
403.000000	1.018375
402.000000	1.008792
401.000000	1.000041
400.000000	0.989861
399.000000	0.980124
398.000000	0.969893
397.000000	0.959063
396.000000	0.948179
395.000000	0.936728
394.000000	0.925143
393.000000	0.913428
392.000000	0.900968
391.000000	0.888374
390.000000	0.875963
389.000000	0.862898
388.000000	0.849977
387.000000	0.836074
386.000000	0.822990
385.000000	0.809320
384.000000	0.795412
383.000000	0.780933
382.000000	0.762570
381.000000	0.752201
380.000000	0.733984
379.000000	0.721231
378.000000	0.706786
377.000000	0.693848
376.000000	0.678682
375.000000	0.665324
374.000000	0.649851
373.000000	0.636658
372.000000	0.622059
371.000000	0.608755
370.000000	0.594259
369.000000	0.581590
368.000000	0.568393
367.000000	0.555132
366.000000	0.541887
365.000000	0.529438
364.000000	0.517239
363.000000	0.503906
362.000000	0.492529
361.000000	0.480570
360.000000	0.469956
359.000000	0.457865
358.000000	0.447296
357.000000	0.435755
356.000000	0.425826
355.000000	0.413758
354.000000	0.406702
353.000000	0.394909
352.000000	0.386401
351.000000	0.375634
350.000000	0.368336
349.000000	0.358156
348.000000	0.351074
347.000000	0.341770
346.000000	0.335616
345.000000	0.326608
344.000000	0.321760
343.000000	0.313867
342.000000	0.308344
341.000000	0.302780
340.000000	0.298287
339.000000	0.292105
338.000000	0.290706
337.000000	0.287602
336.000000	0.285623
335.000000	0.285379
334.000000	0.284910
333.000000	0.287075
332.000000	0.287439
331.000000	0.289916
330.000000	0.290092
329.000000	0.293860
328.000000	0.291269
327.000000	0.293067
326.000000	0.287618
325.000000	0.287485
324.000000	0.287806
323.000000	0.287869
322.000000	0.289224
321.000000	0.290985
320.000000	0.292892
319.000000	0.295133
318.000000	0.297542
317.000000	0.299595
316.000000	0.301542
315.000000	0.303336
314.000000	0.304993
313.000000	0.307260
312.000000	0.309502
311.000000	0.312875
310.000000	0.316427
309.000000	0.322751
308.000000	0.329008
307.000000	0.338202
306.000000	0.348887
305.000000	0.363597
304.000000	0.379390
303.000000	0.399541
302.000000	0.421429
301.000000	0.447422
300.000000	0.473597
299.000000	0.500775
298.000000	0.524748
297.000000	0.544992
296.000000	0.557880
295.000000	0.564164
294.000000	0.567204
293.000000	0.573327
292.000000	0.582064
291.000000	0.579722
290.000000	0.590668
289.000000	0.597340
288.000000	0.604393
287.000000	0.599122
286.000000	0.620697
285.000000	0.584902
284.000000	0.763355
283.000000	0.460489
282.000000	0.810045
281.000000	0.609724
280.000000	10.000000
279.000000	0.607931
278.000000	10.000000
277.000000	0.533507
276.000000	10.000000
275.000000	0.452761
274.000000	10.000000
273.000000	0.668306
272.000000	10.000000
271.000000	0.732298
270.000000	10.000000
269.000000	0.825003
268.000000	10.000000
267.000000	0.511649
266.000000	10.000000
265.000000	2.222385
264.000000	10.000000
263.000000	1.929673
262.000000	0.429566
261.000000	10.000000
260.000000	10.000000
259.000000	10.000000
258.000000	0.448027
257.000000	10.000000
256.000000	10.000000
255.000000	10.000000
254.000000	10.000000
253.000000	10.000000
252.000000	10.000000
251.000000	10.000000
250.000000	0.458823
249.000000	10.000000
248.000000	2.854857
247.000000	10.000000
246.000000	1.352536
245.000000	10.000000
244.000000	10.000000
243.000000	0.462807
242.000000	10.000000
241.000000	10.000000
240.000000	10.000000
239.000000	0.647028
238.000000	10.000000
237.000000	10.000000
236.000000	10.000000
235.000000	0.363000
234.000000	10.000000
233.000000	10.000000
232.000000	10.000000
231.000000	0.546495
230.000000	10.000000
229.000000	10.000000
228.000000	10.000000
227.000000	0.404213
226.000000	10.000000
225.000000	0.655208
224.000000	10.000000
223.000000	10.000000
222.000000	1.454373
221.000000	10.000000
220.000000	10.000000
219.000000	1.295981
218.000000	10.000000
217.000000	10.000000
216.000000	10.000000
215.000000	10.000000
214.000000	10.000000
213.000000	10.000000
212.000000	10.000000
211.000000	10.000000
210.000000	0.850751
209.000000	10.000000
208.000000	10.000000
207.000000	10.000000
206.000000	0.382705
205.000000	10.000000
204.000000	1.517235
203.000000	1.583050
202.000000	0.904077
201.000000	10.000000
200.000000	10.000000
