PE UV       SUBTECH     SPECTRUM    ASCII       PEDS        4.00        
   -1
HCL_3.Sample.asc
23/09/27
16:36:58.00
23/09/27
16:36:58.00
Analyst

200.000000
1
Lambda 35
101N2082704
PerkinElmer UV WinLab 6.0.4.0738 / Lambda35 1.24

480
2
1
0
0
Both on
1
1
1
None
0
0
0
0
 
 
0
0
0
0
0
 
 
 
0
 
0
326
0
 
0
 
 
 
0
0
0
 
0
 
 
 
0
 
 
0
0
0
0
0
 
 
 
 
0
0


0
0
#HDR
-1
-1
#GR
nm
A
1.0
0.0
700.000000
-1.000000
501
8
10.000000
-3.571468
#DATA
700.000000	-0.015862
699.000000	-0.016021
698.000000	-0.015951
697.000000	-0.016115
696.000000	-0.016032
695.000000	-0.016099
694.000000	-0.016062
693.000000	-0.016319
692.000000	-0.016071
691.000000	-0.016265
690.000000	-0.016105
689.000000	-0.016239
688.000000	-0.016289
687.000000	-0.016345
686.000000	-0.016305
685.000000	-0.016415
684.000000	-0.016481
683.000000	-0.016789
682.000000	-0.016792
681.000000	-0.016952
680.000000	-0.016832
679.000000	-0.016888
678.000000	-0.016975
677.000000	-0.016999
676.000000	-0.016878
675.000000	-0.017137
674.000000	-0.017047
673.000000	-0.017193
672.000000	-0.017056
671.000000	-0.017230
670.000000	-0.017158
669.000000	-0.017230
668.000000	-0.017310
667.000000	-0.017384
666.000000	-0.017284
665.000000	-0.017439
664.000000	-0.017385
663.000000	-0.017444
662.000000	-0.017326
661.000000	-0.017528
660.000000	-0.017234
659.000000	-0.017368
658.000000	-0.017328
657.000000	-0.017423
656.000000	-0.017229
655.000000	-0.017372
654.000000	-0.017378
653.000000	-0.017456
652.000000	-0.017445
651.000000	-0.017511
650.000000	-0.017405
649.000000	-0.017551
648.000000	-0.017503
647.000000	-0.017491
646.000000	-0.017466
645.000000	-0.017562
644.000000	-0.017494
643.000000	-0.017465
642.000000	-0.017552
641.000000	-0.017570
640.000000	-0.017483
639.000000	-0.017430
638.000000	-0.017533
637.000000	-0.017475
636.000000	-0.017520
635.000000	-0.017477
634.000000	-0.017421
633.000000	-0.017459
632.000000	-0.017340
631.000000	-0.017318
630.000000	-0.017213
629.000000	-0.017187
628.000000	-0.017187
627.000000	-0.017014
626.000000	-0.017076
625.000000	-0.016878
624.000000	-0.016798
623.000000	-0.016627
622.000000	-0.016471
621.000000	-0.016370
620.000000	-0.016264
619.000000	-0.015896
618.000000	-0.015943
617.000000	-0.015389
616.000000	-0.015318
615.000000	-0.014959
614.000000	-0.014621
613.000000	-0.014138
612.000000	-0.013850
611.000000	-0.013414
610.000000	-0.012967
609.000000	-0.012158
608.000000	-0.011633
607.000000	-0.010653
606.000000	-0.009998
605.000000	-0.008790
604.000000	-0.007882
603.000000	-0.006383
602.000000	-0.005213
601.000000	-0.003453
600.000000	-0.001829
599.000000	0.000202
598.000000	0.002361
597.000000	0.004890
596.000000	0.007741
595.000000	0.010885
594.000000	0.014426
593.000000	0.018262
592.000000	0.022674
591.000000	0.027492
590.000000	0.032850
589.000000	0.038764
588.000000	0.045202
587.000000	0.052411
586.000000	0.060383
585.000000	0.069006
584.000000	0.078608
583.000000	0.089072
582.000000	0.100458
581.000000	0.112975
580.000000	0.126632
579.000000	0.141269
578.000000	0.156936
577.000000	0.173942
576.000000	0.192149
575.000000	0.211520
574.000000	0.231851
573.000000	0.253970
572.000000	0.277030
571.000000	0.301474
570.000000	0.327227
569.000000	0.354035
568.000000	0.381584
567.000000	0.410103
566.000000	0.439558
565.000000	0.469519
564.000000	0.499789
563.000000	0.530658
562.000000	0.561716
561.000000	0.592426
560.000000	0.622743
559.000000	0.654445
558.000000	0.683881
557.000000	0.713073
556.000000	0.741131
555.000000	0.769053
554.000000	0.795640
553.000000	0.821815
552.000000	0.846313
551.000000	0.870463
550.000000	0.892688
549.000000	0.914751
548.000000	0.934417
547.000000	0.953473
546.000000	0.970611
545.000000	0.987761
544.000000	1.002917
543.000000	1.017637
542.000000	1.030843
541.000000	1.043555
540.000000	1.055185
539.000000	1.065858
538.000000	1.076317
537.000000	1.085951
536.000000	1.094980
535.000000	1.103177
534.000000	1.111503
533.000000	1.118866
532.000000	1.126510
531.000000	1.132726
530.000000	1.140189
529.000000	1.146315
528.000000	1.152807
527.000000	1.158346
526.000000	1.164228
525.000000	1.169319
524.000000	1.174033
523.000000	1.177774
522.000000	1.182464
521.000000	1.185766
520.000000	1.188585
519.000000	1.190694
518.000000	1.191794
517.000000	1.193008
516.000000	1.191924
515.000000	1.191475
514.000000	1.188767
513.000000	1.186502
512.000000	1.181958
511.000000	1.177493
510.000000	1.170896
509.000000	1.164518
508.000000	1.156532
507.000000	1.147587
506.000000	1.137783
505.000000	1.127372
504.000000	1.115892
503.000000	1.103979
502.000000	1.091531
501.000000	1.078435
500.000000	1.065157
499.000000	1.050340
498.000000	1.036437
497.000000	1.020963
496.000000	1.006085
495.000000	0.990451
494.000000	0.974885
493.000000	0.958397
492.000000	0.942604
491.000000	0.925632
490.000000	0.909485
489.000000	0.891962
488.000000	0.875422
487.000000	0.857854
486.000000	0.841100
485.000000	0.823395
484.000000	0.805750
483.000000	0.787495
482.000000	0.769745
481.000000	0.751604
480.000000	0.733422
479.000000	0.715299
478.000000	0.697127
477.000000	0.679024
476.000000	0.660408
475.000000	0.642163
474.000000	0.624288
473.000000	0.606298
472.000000	0.588611
471.000000	0.570840
470.000000	0.553507
469.000000	0.536147
468.000000	0.519440
467.000000	0.502562
466.000000	0.486339
465.000000	0.470031
464.000000	0.454165
463.000000	0.438175
462.000000	0.423235
461.000000	0.407505
460.000000	0.392905
459.000000	0.377971
458.000000	0.364132
457.000000	0.349751
456.000000	0.336543
455.000000	0.322729
454.000000	0.309886
453.000000	0.296894
452.000000	0.284426
451.000000	0.272066
450.000000	0.260337
449.000000	0.248721
448.000000	0.237331
447.000000	0.226377
446.000000	0.215727
445.000000	0.205674
444.000000	0.195352
443.000000	0.185866
442.000000	0.176295
441.000000	0.167877
440.000000	0.158762
439.000000	0.150719
438.000000	0.142455
437.000000	0.135065
436.000000	0.127116
435.000000	0.120634
434.000000	0.113383
433.000000	0.107027
432.000000	0.100426
431.000000	0.094622
430.000000	0.088454
429.000000	0.082840
428.000000	0.077289
427.000000	0.072014
426.000000	0.066968
425.000000	0.062394
424.000000	0.057941
423.000000	0.053503
422.000000	0.049431
421.000000	0.045392
420.000000	0.041615
419.000000	0.038562
418.000000	0.034811
417.000000	0.032033
416.000000	0.028604
415.000000	0.026032
414.000000	0.023080
413.000000	0.020634
412.000000	0.018233
411.000000	0.016238
410.000000	0.013758
409.000000	0.011982
408.000000	0.009986
407.000000	0.008354
406.000000	0.006699
405.000000	0.005106
404.000000	0.003830
403.000000	0.002428
402.000000	0.001311
401.000000	0.000072
400.000000	-0.000752
399.000000	-0.001872
398.000000	-0.002579
397.000000	-0.003450
396.000000	-0.003842
395.000000	-0.004532
394.000000	-0.004903
393.000000	-0.005401
392.000000	-0.005543
391.000000	-0.005944
390.000000	-0.005826
389.000000	-0.005892
388.000000	-0.005868
387.000000	-0.005652
386.000000	-0.005434
385.000000	-0.004929
384.000000	-0.004495
383.000000	-0.008555
382.000000	-0.006731
381.000000	-0.009039
380.000000	-0.006038
379.000000	-0.007141
378.000000	-0.005057
377.000000	-0.006079
376.000000	-0.004011
375.000000	-0.004282
374.000000	-0.002603
373.000000	-0.002350
372.000000	-0.000994
371.000000	-0.000062
370.000000	0.001754
369.000000	0.003041
368.000000	0.004914
367.000000	0.006211
366.000000	0.007968
365.000000	0.010295
364.000000	0.011698
363.000000	0.014400
362.000000	0.016405
361.000000	0.019160
360.000000	0.021221
359.000000	0.024500
358.000000	0.026345
357.000000	0.030063
356.000000	0.031721
355.000000	0.034927
354.000000	0.036797
353.000000	0.039905
352.000000	0.041660
351.000000	0.044038
350.000000	0.046302
349.000000	0.048275
348.000000	0.049950
347.000000	0.051707
346.000000	0.053788
345.000000	0.054661
344.000000	0.057614
343.000000	0.058257
342.000000	0.060944
341.000000	0.061079
340.000000	0.064076
339.000000	0.063727
338.000000	0.066910
337.000000	0.066090
336.000000	0.069198
335.000000	0.068447
334.000000	0.070432
333.000000	0.070452
332.000000	0.071476
331.000000	0.071973
330.000000	0.072053
329.000000	0.072685
328.000000	0.072488
327.000000	0.071477
326.000000	0.068917
325.000000	0.068548
324.000000	0.068562
323.000000	0.067706
322.000000	0.067778
321.000000	0.066911
320.000000	0.066512
319.000000	0.065892
318.000000	0.065548
317.000000	0.064979
316.000000	0.064647
315.000000	0.064561
314.000000	0.064507
313.000000	0.064846
312.000000	0.065013
311.000000	0.066411
310.000000	0.067578
309.000000	0.070348
308.000000	0.073982
307.000000	0.078997
306.000000	0.085179
305.000000	0.093227
304.000000	0.101991
303.000000	0.112481
302.000000	0.122460
301.000000	0.133019
300.000000	0.141754
299.000000	0.148126
298.000000	0.151966
297.000000	0.153530
296.000000	0.152111
295.000000	0.150333
294.000000	0.151339
293.000000	0.152836
292.000000	0.169672
291.000000	0.163695
290.000000	0.164636
289.000000	0.153895
288.000000	0.153766
287.000000	0.134446
286.000000	0.149479
285.000000	0.113590
284.000000	0.162868
283.000000	0.009616
282.000000	0.155744
281.000000	-0.039568
280.000000	0.087051
279.000000	-0.058099
278.000000	0.115006
277.000000	0.071209
276.000000	0.095015
275.000000	0.075284
274.000000	-0.130016
273.000000	0.079212
272.000000	-0.149308
271.000000	0.256259
270.000000	-0.225941
269.000000	0.153519
268.000000	-0.308152
267.000000	0.332337
266.000000	-0.380364
265.000000	0.478739
264.000000	-0.354779
263.000000	0.247205
262.000000	-0.429299
261.000000	0.460355
260.000000	-0.317132
259.000000	0.035549
258.000000	-0.153130
257.000000	-0.399544
256.000000	0.217732
255.000000	-0.564920
254.000000	10.000000
253.000000	-0.220169
252.000000	0.253315
251.000000	-0.170570
250.000000	0.302316
249.000000	-0.365708
248.000000	-0.114242
247.000000	-0.372661
246.000000	0.088130
245.000000	-0.255981
244.000000	0.049699
243.000000	-0.394118
242.000000	-0.305019
241.000000	-0.391307
240.000000	0.216502
239.000000	-0.349258
238.000000	0.100870
237.000000	-0.202432
236.000000	-0.261820
235.000000	-0.151850
234.000000	-3.399943
233.000000	-3.339073
232.000000	-0.813551
231.000000	10.000000
230.000000	-2.163376
229.000000	-2.293468
228.000000	10.000000
227.000000	-0.090025
226.000000	-0.366546
225.000000	-0.080879
224.000000	-0.787866
223.000000	-0.454137
222.000000	10.000000
221.000000	10.000000
220.000000	-3.558648
219.000000	10.000000
218.000000	-0.397529
217.000000	-0.026922
216.000000	-0.428740
215.000000	-0.181923
214.000000	10.000000
213.000000	-3.006740
212.000000	-2.480017
211.000000	-0.250154
210.000000	0.612071
209.000000	10.000000
208.000000	-1.445609
207.000000	-3.048221
206.000000	-0.559456
205.000000	10.000000
204.000000	-0.116866
203.000000	-0.473906
202.000000	10.000000
201.000000	-3.571468
200.000000	-0.169493
