PE UV       SUBTECH     SPECTRUM    ASCII       PEDS        4.00        
   -1
HCL_1.Sample.asc
23/09/27
16:19:07.00
23/09/27
16:19:07.00
Analyst

200.000000
1
Lambda 35
101N2082704
PerkinElmer UV WinLab 6.0.4.0738 / Lambda35 1.24

480
2
1
0
0
Both on
1
1
1
None
0
0
0
0
 
 
0
0
0
0
0
 
 
 
0
 
0
326
0
 
0
 
 
 
0
0
0
 
0
 
 
 
0
 
 
0
0
0
0
0
 
 
 
 
0
0


0
0
#HDR
-1
-1
#GR
nm
A
1.0
0.0
700.000000
-1.000000
501
8
10.000000
-0.141149
#DATA
700.000000	-0.013073
699.000000	-0.013251
698.000000	-0.013029
697.000000	-0.013315
696.000000	-0.013169
695.000000	-0.013260
694.000000	-0.013123
693.000000	-0.013291
692.000000	-0.013244
691.000000	-0.013311
690.000000	-0.013211
689.000000	-0.013288
688.000000	-0.013219
687.000000	-0.013337
686.000000	-0.013239
685.000000	-0.013505
684.000000	-0.013343
683.000000	-0.013566
682.000000	-0.013668
681.000000	-0.013625
680.000000	-0.013598
679.000000	-0.013654
678.000000	-0.013712
677.000000	-0.013660
676.000000	-0.013684
675.000000	-0.013782
674.000000	-0.013872
673.000000	-0.013781
672.000000	-0.013685
671.000000	-0.013703
670.000000	-0.013705
669.000000	-0.013758
668.000000	-0.013852
667.000000	-0.013769
666.000000	-0.013891
665.000000	-0.013780
664.000000	-0.013891
663.000000	-0.013727
662.000000	-0.013859
661.000000	-0.013791
660.000000	-0.013642
659.000000	-0.013576
658.000000	-0.013687
657.000000	-0.013601
656.000000	-0.013462
655.000000	-0.013468
654.000000	-0.013350
653.000000	-0.013431
652.000000	-0.013453
651.000000	-0.013266
650.000000	-0.013120
649.000000	-0.013227
648.000000	-0.013050
647.000000	-0.013036
646.000000	-0.012847
645.000000	-0.012833
644.000000	-0.012649
643.000000	-0.012522
642.000000	-0.012484
641.000000	-0.012285
640.000000	-0.012029
639.000000	-0.011868
638.000000	-0.011740
637.000000	-0.011531
636.000000	-0.011358
635.000000	-0.010901
634.000000	-0.010748
633.000000	-0.010573
632.000000	-0.009987
631.000000	-0.009711
630.000000	-0.009229
629.000000	-0.008918
628.000000	-0.008341
627.000000	-0.007833
626.000000	-0.007214
625.000000	-0.006637
624.000000	-0.005897
623.000000	-0.005200
622.000000	-0.004231
621.000000	-0.003382
620.000000	-0.002323
619.000000	-0.001201
618.000000	-0.000080
617.000000	0.001445
616.000000	0.002881
615.000000	0.004425
614.000000	0.006300
613.000000	0.008215
612.000000	0.010420
611.000000	0.012518
610.000000	0.015324
609.000000	0.018318
608.000000	0.021428
607.000000	0.025181
606.000000	0.029106
605.000000	0.033633
604.000000	0.038483
603.000000	0.044122
602.000000	0.049986
601.000000	0.056930
600.000000	0.064231
599.000000	0.072876
598.000000	0.082209
597.000000	0.092868
596.000000	0.104457
595.000000	0.117557
594.000000	0.131750
593.000000	0.147762
592.000000	0.165319
591.000000	0.185093
590.000000	0.206409
589.000000	0.230097
588.000000	0.255802
587.000000	0.284392
586.000000	0.315548
585.000000	0.349998
584.000000	0.387222
583.000000	0.428518
582.000000	0.473107
581.000000	0.522086
580.000000	0.574601
579.000000	0.631617
578.000000	0.692441
577.000000	0.758188
576.000000	0.827820
575.000000	0.902536
574.000000	0.980578
573.000000	1.064758
572.000000	1.152010
571.000000	1.243903
570.000000	1.340477
569.000000	1.440331
568.000000	1.540461
567.000000	1.642939
566.000000	1.746319
565.000000	1.851112
564.000000	1.950494
563.000000	2.048012
562.000000	2.141628
561.000000	2.230424
560.000000	2.308781
559.000000	2.447405
558.000000	2.524240
557.000000	2.591553
556.000000	2.652538
555.000000	2.688043
554.000000	2.745533
553.000000	2.783637
552.000000	2.812048
551.000000	2.839096
550.000000	2.863932
549.000000	2.879035
548.000000	2.898378
547.000000	2.890557
546.000000	2.918544
545.000000	2.931413
544.000000	2.939807
543.000000	2.944337
542.000000	2.939761
541.000000	2.957758
540.000000	2.962127
539.000000	2.935265
538.000000	2.952883
537.000000	2.961996
536.000000	2.957300
535.000000	2.971195
534.000000	2.971059
533.000000	2.980534
532.000000	2.975679
531.000000	2.961482
530.000000	2.965985
529.000000	2.994823
528.000000	2.980104
527.000000	3.004756
526.000000	2.965712
525.000000	2.994499
524.000000	2.984613
523.000000	2.974760
522.000000	2.974856
521.000000	2.999146
520.000000	2.984269
519.000000	2.998999
518.000000	2.979255
517.000000	3.003952
516.000000	2.974350
515.000000	2.974137
514.000000	2.974096
513.000000	3.003562
512.000000	2.978764
511.000000	2.993315
510.000000	2.969036
509.000000	2.998214
508.000000	2.973610
507.000000	2.973448
506.000000	2.959422
505.000000	2.992741
504.000000	2.968412
503.000000	2.982734
502.000000	2.954415
501.000000	2.987529
500.000000	2.968188
499.000000	2.949568
498.000000	2.949588
497.000000	2.972600
496.000000	2.949487
495.000000	2.953841
494.000000	2.936138
493.000000	2.953755
492.000000	2.923142
491.000000	2.910309
490.000000	2.890274
489.000000	2.918539
488.000000	2.886242
487.000000	2.885992
486.000000	2.867147
485.000000	2.870653
484.000000	2.838102
483.000000	2.794569
482.000000	2.776107
481.000000	2.758027
480.000000	2.735492
479.000000	2.690598
478.000000	2.654777
477.000000	2.611027
476.000000	2.569313
475.000000	2.510993
474.000000	2.473067
473.000000	2.420200
472.000000	2.368345
471.000000	2.313485
470.000000	2.260148
469.000000	2.200134
468.000000	2.145465
467.000000	2.081048
466.000000	2.026574
465.000000	1.966535
464.000000	1.912854
463.000000	1.849961
462.000000	1.793401
461.000000	1.732220
460.000000	1.677384
459.000000	1.615134
458.000000	1.563989
457.000000	1.505911
456.000000	1.453732
455.000000	1.397052
454.000000	1.345193
453.000000	1.291929
452.000000	1.241361
451.000000	1.189101
450.000000	1.141449
449.000000	1.092834
448.000000	1.047152
447.000000	1.000505
446.000000	0.957276
445.000000	0.914285
444.000000	0.873154
443.000000	0.832238
442.000000	0.794157
441.000000	0.757366
440.000000	0.721519
439.000000	0.686699
438.000000	0.653970
437.000000	0.622308
436.000000	0.591611
435.000000	0.561853
434.000000	0.533883
433.000000	0.506326
432.000000	0.479833
431.000000	0.454214
430.000000	0.429730
429.000000	0.406616
428.000000	0.384179
427.000000	0.362777
426.000000	0.342280
425.000000	0.322727
424.000000	0.303909
423.000000	0.285954
422.000000	0.268720
421.000000	0.252404
420.000000	0.236950
419.000000	0.222513
418.000000	0.208343
417.000000	0.195237
416.000000	0.182419
415.000000	0.170750
414.000000	0.159355
413.000000	0.148781
412.000000	0.138829
411.000000	0.129498
410.000000	0.120526
409.000000	0.112355
408.000000	0.104563
407.000000	0.097300
406.000000	0.090485
405.000000	0.084090
404.000000	0.078237
403.000000	0.072697
402.000000	0.067664
401.000000	0.062794
400.000000	0.058616
399.000000	0.054542
398.000000	0.051150
397.000000	0.047754
396.000000	0.045261
395.000000	0.042697
394.000000	0.040655
393.000000	0.038963
392.000000	0.037712
391.000000	0.036652
390.000000	0.036094
389.000000	0.035802
388.000000	0.035700
387.000000	0.036307
386.000000	0.036919
385.000000	0.038087
384.000000	0.039482
383.000000	0.037511
382.000000	0.040333
381.000000	0.039998
380.000000	0.043269
379.000000	0.044336
378.000000	0.048268
377.000000	0.049528
376.000000	0.053785
375.000000	0.055730
374.000000	0.060459
373.000000	0.063697
372.000000	0.068326
371.000000	0.072429
370.000000	0.078211
369.000000	0.082631
368.000000	0.089243
367.000000	0.095242
366.000000	0.102595
365.000000	0.109761
364.000000	0.117761
363.000000	0.126416
362.000000	0.135451
361.000000	0.145230
360.000000	0.154548
359.000000	0.164891
358.000000	0.174687
357.000000	0.186065
356.000000	0.195144
355.000000	0.205914
354.000000	0.215109
353.000000	0.225362
352.000000	0.233547
351.000000	0.243196
350.000000	0.250509
349.000000	0.258366
348.000000	0.264834
347.000000	0.272720
346.000000	0.278654
345.000000	0.286037
344.000000	0.292310
343.000000	0.299166
342.000000	0.304546
341.000000	0.311042
340.000000	0.316785
339.000000	0.321282
338.000000	0.326173
337.000000	0.331110
336.000000	0.335003
335.000000	0.337830
334.000000	0.341227
333.000000	0.343044
332.000000	0.345085
331.000000	0.343886
330.000000	0.347441
329.000000	0.346236
328.000000	0.347875
327.000000	0.344484
326.000000	0.342725
325.000000	0.342208
324.000000	0.340880
323.000000	0.339909
322.000000	0.338416
321.000000	0.337358
320.000000	0.335782
319.000000	0.334643
318.000000	0.333081
317.000000	0.332103
316.000000	0.331491
315.000000	0.330832
314.000000	0.331809
313.000000	0.333228
312.000000	0.336802
311.000000	0.341432
310.000000	0.349460
309.000000	0.360411
308.000000	0.375920
307.000000	0.395000
306.000000	0.421330
305.000000	0.451613
304.000000	0.488315
303.000000	0.527361
302.000000	0.569280
301.000000	0.608833
300.000000	0.645478
299.000000	0.672594
298.000000	0.693563
297.000000	0.706353
296.000000	0.709660
295.000000	0.712934
294.000000	0.710369
293.000000	0.719148
292.000000	0.721658
291.000000	0.729791
290.000000	0.729041
289.000000	0.740298
288.000000	0.718113
287.000000	0.727796
286.000000	0.682031
285.000000	0.738071
284.000000	0.531856
283.000000	0.630454
282.000000	0.357788
281.000000	1.346329
280.000000	0.315210
279.000000	0.640309
278.000000	0.527666
277.000000	0.561533
276.000000	0.472494
275.000000	0.376794
274.000000	0.752277
273.000000	0.375906
272.000000	0.747421
271.000000	1.095236
270.000000	10.000000
269.000000	0.491091
268.000000	1.107127
267.000000	0.216372
266.000000	10.000000
265.000000	0.209330
264.000000	10.000000
263.000000	0.519156
262.000000	10.000000
261.000000	0.255741
260.000000	1.440780
259.000000	0.185211
258.000000	0.574485
257.000000	0.801777
256.000000	1.399609
255.000000	0.455730
254.000000	1.022690
253.000000	10.000000
252.000000	0.451410
251.000000	0.510537
250.000000	0.480176
249.000000	10.000000
248.000000	0.181124
247.000000	10.000000
246.000000	0.290878
245.000000	10.000000
244.000000	0.056948
243.000000	0.805837
242.000000	0.062370
241.000000	10.000000
240.000000	0.399565
239.000000	10.000000
238.000000	0.370491
237.000000	10.000000
236.000000	0.363319
235.000000	0.593436
234.000000	0.364327
233.000000	10.000000
232.000000	0.591300
231.000000	0.814229
230.000000	1.206633
229.000000	0.579469
228.000000	0.712387
227.000000	0.384613
226.000000	1.459371
225.000000	0.649437
224.000000	10.000000
223.000000	0.396045
222.000000	10.000000
221.000000	0.644879
220.000000	10.000000
219.000000	0.113906
218.000000	10.000000
217.000000	0.248340
216.000000	10.000000
215.000000	0.176984
214.000000	10.000000
213.000000	0.580112
212.000000	10.000000
211.000000	-0.141149
210.000000	10.000000
209.000000	2.130006
208.000000	10.000000
207.000000	3.312192
206.000000	0.742877
205.000000	10.000000
204.000000	1.084086
203.000000	0.281991
202.000000	10.000000
201.000000	1.120323
200.000000	0.316993
