PE UV       SUBTECH     SPECTRUM    ASCII       PEDS        4.00        
   -1
HCL_5.Sample.asc
23/09/27
16:45:57.00
23/09/27
16:45:57.00
Analyst

200.000000
1
Lambda 35
101N2082704
PerkinElmer UV WinLab 6.0.4.0738 / Lambda35 1.24

480
2
1
0
0
Both on
1
1
1
None
0
0
0
0
 
 
0
0
0
0
0
 
 
 
0
 
0
326
0
 
0
 
 
 
0
0
0
 
0
 
 
 
0
 
 
0
0
0
0
0
 
 
 
 
0
0


0
0
#HDR
-1
-1
#GR
nm
A
1.0
0.0
700.000000
-1.000000
501
8
10.000000
-2.621975
#DATA
700.000000	-0.016274
699.000000	-0.016531
698.000000	-0.016363
697.000000	-0.016654
696.000000	-0.016462
695.000000	-0.016684
694.000000	-0.016493
693.000000	-0.016726
692.000000	-0.016553
691.000000	-0.016822
690.000000	-0.016612
689.000000	-0.016755
688.000000	-0.016748
687.000000	-0.016843
686.000000	-0.016765
685.000000	-0.017020
684.000000	-0.016974
683.000000	-0.017418
682.000000	-0.017454
681.000000	-0.017487
680.000000	-0.017353
679.000000	-0.017588
678.000000	-0.017501
677.000000	-0.017666
676.000000	-0.017442
675.000000	-0.017668
674.000000	-0.017592
673.000000	-0.017555
672.000000	-0.017470
671.000000	-0.017630
670.000000	-0.017515
669.000000	-0.017621
668.000000	-0.017616
667.000000	-0.017699
666.000000	-0.017722
665.000000	-0.017745
664.000000	-0.017790
663.000000	-0.017740
662.000000	-0.017670
661.000000	-0.017815
660.000000	-0.017742
659.000000	-0.017712
658.000000	-0.017733
657.000000	-0.017734
656.000000	-0.017705
655.000000	-0.017679
654.000000	-0.017765
653.000000	-0.017791
652.000000	-0.017832
651.000000	-0.017756
650.000000	-0.017905
649.000000	-0.017863
648.000000	-0.017909
647.000000	-0.017888
646.000000	-0.017896
645.000000	-0.017930
644.000000	-0.018000
643.000000	-0.017876
642.000000	-0.018063
641.000000	-0.018028
640.000000	-0.017985
639.000000	-0.017983
638.000000	-0.018092
637.000000	-0.018048
636.000000	-0.018198
635.000000	-0.018027
634.000000	-0.018203
633.000000	-0.018170
632.000000	-0.018217
631.000000	-0.018196
630.000000	-0.018058
629.000000	-0.018155
628.000000	-0.018274
627.000000	-0.018188
626.000000	-0.018340
625.000000	-0.018262
624.000000	-0.018279
623.000000	-0.018304
622.000000	-0.018277
621.000000	-0.018297
620.000000	-0.018350
619.000000	-0.018184
618.000000	-0.018400
617.000000	-0.018083
616.000000	-0.018158
615.000000	-0.018248
614.000000	-0.018182
613.000000	-0.018144
612.000000	-0.018280
611.000000	-0.018284
610.000000	-0.018161
609.000000	-0.018066
608.000000	-0.018006
607.000000	-0.017857
606.000000	-0.017866
605.000000	-0.017729
604.000000	-0.017619
603.000000	-0.017467
602.000000	-0.017349
601.000000	-0.017194
600.000000	-0.017050
599.000000	-0.016926
598.000000	-0.016722
597.000000	-0.016519
596.000000	-0.016181
595.000000	-0.015996
594.000000	-0.015593
593.000000	-0.015296
592.000000	-0.014904
591.000000	-0.014432
590.000000	-0.013971
589.000000	-0.013440
588.000000	-0.012875
587.000000	-0.012247
586.000000	-0.011614
585.000000	-0.010729
584.000000	-0.010039
583.000000	-0.009047
582.000000	-0.008106
581.000000	-0.006986
580.000000	-0.005805
579.000000	-0.004450
578.000000	-0.003139
577.000000	-0.001738
576.000000	-0.000151
575.000000	0.001597
574.000000	0.003250
573.000000	0.005224
572.000000	0.007238
571.000000	0.009388
570.000000	0.011572
569.000000	0.013984
568.000000	0.016326
567.000000	0.019001
566.000000	0.021334
565.000000	0.024127
564.000000	0.026642
563.000000	0.029550
562.000000	0.032034
561.000000	0.034916
560.000000	0.037301
559.000000	0.040351
558.000000	0.042636
557.000000	0.045390
556.000000	0.047649
555.000000	0.050315
554.000000	0.052408
553.000000	0.054803
552.000000	0.056776
551.000000	0.059003
550.000000	0.060892
549.000000	0.062911
548.000000	0.064558
547.000000	0.066361
546.000000	0.067586
545.000000	0.069323
544.000000	0.070397
543.000000	0.071919
542.000000	0.072931
541.000000	0.074288
540.000000	0.075031
539.000000	0.076259
538.000000	0.076918
537.000000	0.077949
536.000000	0.078566
535.000000	0.079458
534.000000	0.079958
533.000000	0.080762
532.000000	0.081296
531.000000	0.081965
530.000000	0.082354
529.000000	0.083035
528.000000	0.083462
527.000000	0.084031
526.000000	0.084457
525.000000	0.084894
524.000000	0.085322
523.000000	0.085513
522.000000	0.086047
521.000000	0.086152
520.000000	0.086513
519.000000	0.086511
518.000000	0.086727
517.000000	0.086644
516.000000	0.086739
515.000000	0.086427
514.000000	0.086263
513.000000	0.085785
512.000000	0.085508
511.000000	0.085021
510.000000	0.084364
509.000000	0.083649
508.000000	0.083054
507.000000	0.082033
506.000000	0.081334
505.000000	0.080019
504.000000	0.079055
503.000000	0.077799
502.000000	0.076898
501.000000	0.075446
500.000000	0.074312
499.000000	0.072797
498.000000	0.071617
497.000000	0.070011
496.000000	0.068816
495.000000	0.067315
494.000000	0.066201
493.000000	0.064188
492.000000	0.063251
491.000000	0.061376
490.000000	0.060339
489.000000	0.058318
488.000000	0.057164
487.000000	0.055323
486.000000	0.054257
485.000000	0.052301
484.000000	0.051088
483.000000	0.049136
482.000000	0.047878
481.000000	0.046186
480.000000	0.044721
479.000000	0.042957
478.000000	0.041445
477.000000	0.039875
476.000000	0.038245
475.000000	0.036589
474.000000	0.035107
473.000000	0.033569
472.000000	0.032034
471.000000	0.030463
470.000000	0.029012
469.000000	0.027355
468.000000	0.026130
467.000000	0.024554
466.000000	0.023372
465.000000	0.021854
464.000000	0.020625
463.000000	0.019053
462.000000	0.017920
461.000000	0.016392
460.000000	0.015406
459.000000	0.013990
458.000000	0.012962
457.000000	0.011733
456.000000	0.010661
455.000000	0.009548
454.000000	0.008358
453.000000	0.007408
452.000000	0.006209
451.000000	0.005376
450.000000	0.004215
449.000000	0.003359
448.000000	0.002122
447.000000	0.001419
446.000000	0.000484
445.000000	-0.000252
444.000000	-0.001409
443.000000	-0.002122
442.000000	-0.002963
441.000000	-0.003334
440.000000	-0.004162
439.000000	-0.004931
438.000000	-0.005710
437.000000	-0.006170
436.000000	-0.007056
435.000000	-0.007371
434.000000	-0.008158
433.000000	-0.008452
432.000000	-0.009233
431.000000	-0.009633
430.000000	-0.010214
429.000000	-0.010729
428.000000	-0.011490
427.000000	-0.011827
426.000000	-0.012675
425.000000	-0.012654
424.000000	-0.013227
423.000000	-0.013471
422.000000	-0.013943
421.000000	-0.014294
420.000000	-0.014833
419.000000	-0.014789
418.000000	-0.015320
417.000000	-0.015373
416.000000	-0.015881
415.000000	-0.015982
414.000000	-0.016344
413.000000	-0.016476
412.000000	-0.016721
411.000000	-0.016670
410.000000	-0.017137
409.000000	-0.017251
408.000000	-0.017333
407.000000	-0.017545
406.000000	-0.017687
405.000000	-0.017904
404.000000	-0.017900
403.000000	-0.018069
402.000000	-0.018027
401.000000	-0.018302
400.000000	-0.018144
399.000000	-0.018564
398.000000	-0.018358
397.000000	-0.018506
396.000000	-0.018376
395.000000	-0.018449
394.000000	-0.018392
393.000000	-0.018556
392.000000	-0.018525
391.000000	-0.018533
390.000000	-0.018474
389.000000	-0.018444
388.000000	-0.018547
387.000000	-0.018417
386.000000	-0.018319
385.000000	-0.018225
384.000000	-0.018183
383.000000	-0.019991
382.000000	-0.020398
381.000000	-0.020806
380.000000	-0.020262
379.000000	-0.020224
378.000000	-0.020645
377.000000	-0.020624
376.000000	-0.020733
375.000000	-0.020849
374.000000	-0.020914
373.000000	-0.020670
372.000000	-0.020564
371.000000	-0.020480
370.000000	-0.020354
369.000000	-0.020554
368.000000	-0.019821
367.000000	-0.019938
366.000000	-0.019458
365.000000	-0.019623
364.000000	-0.019085
363.000000	-0.019091
362.000000	-0.018569
361.000000	-0.018007
360.000000	-0.018187
359.000000	-0.017821
358.000000	-0.017606
357.000000	-0.017007
356.000000	-0.017606
355.000000	-0.016567
354.000000	-0.017156
353.000000	-0.016589
352.000000	-0.016927
351.000000	-0.016282
350.000000	-0.016059
349.000000	-0.015822
348.000000	-0.016173
347.000000	-0.015566
346.000000	-0.015162
345.000000	-0.015421
344.000000	-0.014524
343.000000	-0.014888
342.000000	-0.013996
341.000000	-0.014156
340.000000	-0.013651
339.000000	-0.014747
338.000000	-0.012966
337.000000	-0.013986
336.000000	-0.012882
335.000000	-0.013199
334.000000	-0.012614
333.000000	-0.012683
332.000000	-0.013043
331.000000	-0.011361
330.000000	-0.012431
329.000000	-0.011009
328.000000	-0.013221
327.000000	-0.011666
326.000000	-0.016638
325.000000	-0.016425
324.000000	-0.016540
323.000000	-0.016669
322.000000	-0.016952
321.000000	-0.016669
320.000000	-0.017485
319.000000	-0.017208
318.000000	-0.017439
317.000000	-0.017490
316.000000	-0.017717
315.000000	-0.017568
314.000000	-0.017595
313.000000	-0.017443
312.000000	-0.017765
311.000000	-0.017925
310.000000	-0.017519
309.000000	-0.017675
308.000000	-0.017422
307.000000	-0.017328
306.000000	-0.016756
305.000000	-0.016571
304.000000	-0.016026
303.000000	-0.015690
302.000000	-0.014807
301.000000	-0.014542
300.000000	-0.014082
299.000000	-0.014770
298.000000	-0.016042
297.000000	-0.017587
296.000000	-0.021136
295.000000	-0.022648
294.000000	-0.023100
293.000000	-0.014612
292.000000	-0.008848
291.000000	-0.005249
290.000000	-0.016275
289.000000	-0.017163
288.000000	-0.020412
287.000000	-0.029294
286.000000	-0.018183
285.000000	-0.025226
284.000000	0.024621
283.000000	-0.006524
282.000000	0.126397
281.000000	0.012322
280.000000	0.280032
279.000000	0.067949
278.000000	0.203221
277.000000	0.133801
276.000000	0.274615
275.000000	0.120293
274.000000	0.076347
273.000000	0.441982
272.000000	0.070834
271.000000	0.784262
270.000000	0.083216
269.000000	0.828617
268.000000	-0.111177
267.000000	0.493574
266.000000	0.376749
265.000000	0.163493
264.000000	0.162862
263.000000	0.567543
262.000000	0.272136
261.000000	0.171662
260.000000	1.432725
259.000000	0.237166
258.000000	0.668814
257.000000	0.119568
256.000000	10.000000
255.000000	-0.286537
254.000000	0.474075
253.000000	0.327415
252.000000	10.000000
251.000000	0.111810
250.000000	0.254450
249.000000	1.049307
248.000000	0.097735
247.000000	1.067001
246.000000	0.370788
245.000000	1.870972
244.000000	0.159316
243.000000	0.625848
242.000000	0.217921
241.000000	0.606037
240.000000	0.413731
239.000000	0.397032
238.000000	0.465997
237.000000	0.610249
236.000000	0.930340
235.000000	0.252743
234.000000	0.802723
233.000000	0.200507
232.000000	0.766153
231.000000	0.124790
230.000000	10.000000
229.000000	0.116429
228.000000	10.000000
227.000000	0.078593
226.000000	0.231027
225.000000	10.000000
224.000000	0.277347
223.000000	0.701011
222.000000	0.477609
221.000000	10.000000
220.000000	0.327779
219.000000	0.587173
218.000000	1.289578
217.000000	0.540759
216.000000	0.756082
215.000000	-2.621975
214.000000	10.000000
213.000000	1.196130
212.000000	10.000000
211.000000	0.302689
210.000000	10.000000
209.000000	0.297198
208.000000	10.000000
207.000000	0.434506
206.000000	10.000000
205.000000	0.504655
204.000000	0.499146
203.000000	0.176789
202.000000	0.241679
201.000000	10.000000
200.000000	0.283388
