PE UV       SUBTECH     SPECTRUM    ASCII       PEDS        4.00        
   -1
HCL_4.Sample.asc
23/09/27
16:40:15.00
23/09/27
16:40:15.00
Analyst

200.000000
1
Lambda 35
101N2082704
PerkinElmer UV WinLab 6.0.4.0738 / Lambda35 1.24

480
2
1
0
0
Both on
1
1
1
None
0
0
0
0
 
 
0
0
0
0
0
 
 
 
0
 
0
326
0
 
0
 
 
 
0
0
0
 
0
 
 
 
0
 
 
0
0
0
0
0
 
 
 
 
0
0


0
0
#HDR
-1
-1
#GR
nm
A
1.0
0.0
700.000000
-1.000000
501
8
10.000000
-3.303886
#DATA
700.000000	-0.017110
699.000000	-0.017246
698.000000	-0.017246
697.000000	-0.017387
696.000000	-0.017416
695.000000	-0.017442
694.000000	-0.017461
693.000000	-0.017517
692.000000	-0.017512
691.000000	-0.017599
690.000000	-0.017538
689.000000	-0.017551
688.000000	-0.017633
687.000000	-0.017732
686.000000	-0.017692
685.000000	-0.017765
684.000000	-0.017868
683.000000	-0.018097
682.000000	-0.018222
681.000000	-0.018180
680.000000	-0.018271
679.000000	-0.018220
678.000000	-0.018321
677.000000	-0.018290
676.000000	-0.018318
675.000000	-0.018437
674.000000	-0.018521
673.000000	-0.018456
672.000000	-0.018475
671.000000	-0.018568
670.000000	-0.018632
669.000000	-0.018598
668.000000	-0.018640
667.000000	-0.018793
666.000000	-0.018671
665.000000	-0.018816
664.000000	-0.018772
663.000000	-0.018812
662.000000	-0.018789
661.000000	-0.018892
660.000000	-0.018744
659.000000	-0.018799
658.000000	-0.018735
657.000000	-0.018948
656.000000	-0.018721
655.000000	-0.018950
654.000000	-0.018725
653.000000	-0.018949
652.000000	-0.018901
651.000000	-0.018976
650.000000	-0.018956
649.000000	-0.019102
648.000000	-0.019017
647.000000	-0.019072
646.000000	-0.018961
645.000000	-0.019142
644.000000	-0.019019
643.000000	-0.019037
642.000000	-0.019191
641.000000	-0.019152
640.000000	-0.019109
639.000000	-0.019112
638.000000	-0.019188
637.000000	-0.019178
636.000000	-0.019252
635.000000	-0.019194
634.000000	-0.019145
633.000000	-0.019353
632.000000	-0.019197
631.000000	-0.019271
630.000000	-0.019218
629.000000	-0.019188
628.000000	-0.019241
627.000000	-0.019207
626.000000	-0.019241
625.000000	-0.019183
624.000000	-0.019109
623.000000	-0.019111
622.000000	-0.019061
621.000000	-0.019039
620.000000	-0.019011
619.000000	-0.018855
618.000000	-0.019005
617.000000	-0.018607
616.000000	-0.018682
615.000000	-0.018544
614.000000	-0.018421
613.000000	-0.018259
612.000000	-0.018256
611.000000	-0.018088
610.000000	-0.018007
609.000000	-0.017610
608.000000	-0.017525
607.000000	-0.017019
606.000000	-0.016839
605.000000	-0.016175
604.000000	-0.015991
603.000000	-0.015304
602.000000	-0.014926
601.000000	-0.014122
600.000000	-0.013628
599.000000	-0.012636
598.000000	-0.011926
597.000000	-0.010800
596.000000	-0.009852
595.000000	-0.008510
594.000000	-0.007059
593.000000	-0.005588
592.000000	-0.003809
591.000000	-0.001806
590.000000	0.000223
589.000000	0.002698
588.000000	0.005148
587.000000	0.008201
586.000000	0.011299
585.000000	0.014803
584.000000	0.018575
583.000000	0.022799
582.000000	0.027312
581.000000	0.032407
580.000000	0.037776
579.000000	0.043867
578.000000	0.050001
577.000000	0.056951
576.000000	0.064054
575.000000	0.071995
574.000000	0.080040
573.000000	0.088970
572.000000	0.098213
571.000000	0.108161
570.000000	0.118366
569.000000	0.129113
568.000000	0.140206
567.000000	0.151663
566.000000	0.163429
565.000000	0.175601
564.000000	0.187686
563.000000	0.200114
562.000000	0.212587
561.000000	0.224970
560.000000	0.237125
559.000000	0.249775
558.000000	0.261532
557.000000	0.273301
556.000000	0.284630
555.000000	0.295743
554.000000	0.306435
553.000000	0.316832
552.000000	0.326925
551.000000	0.336592
550.000000	0.345430
549.000000	0.354309
548.000000	0.362248
547.000000	0.369950
546.000000	0.376965
545.000000	0.383638
544.000000	0.389751
543.000000	0.395709
542.000000	0.401066
541.000000	0.406193
540.000000	0.410885
539.000000	0.415109
538.000000	0.419360
537.000000	0.423294
536.000000	0.426817
535.000000	0.430105
534.000000	0.433336
533.000000	0.436521
532.000000	0.439440
531.000000	0.442268
530.000000	0.444777
529.000000	0.447458
528.000000	0.449677
527.000000	0.452088
526.000000	0.454361
525.000000	0.456434
524.000000	0.458143
523.000000	0.459789
522.000000	0.461331
521.000000	0.462485
520.000000	0.463514
519.000000	0.464294
518.000000	0.464678
517.000000	0.464920
516.000000	0.464704
515.000000	0.463901
514.000000	0.463066
513.000000	0.461484
512.000000	0.459987
511.000000	0.457540
510.000000	0.455124
509.000000	0.452059
508.000000	0.448736
507.000000	0.444644
506.000000	0.440852
505.000000	0.436037
504.000000	0.431387
503.000000	0.426350
502.000000	0.421138
501.000000	0.415609
500.000000	0.409871
499.000000	0.403758
498.000000	0.397846
497.000000	0.391462
496.000000	0.385289
495.000000	0.378726
494.000000	0.372429
493.000000	0.365725
492.000000	0.359219
491.000000	0.352310
490.000000	0.345766
489.000000	0.338501
488.000000	0.331867
487.000000	0.324687
486.000000	0.318197
485.000000	0.310799
484.000000	0.303912
483.000000	0.296460
482.000000	0.289780
481.000000	0.282122
480.000000	0.275332
479.000000	0.267720
478.000000	0.260826
477.000000	0.253411
476.000000	0.246357
475.000000	0.238869
474.000000	0.231918
473.000000	0.224642
472.000000	0.217795
471.000000	0.210550
470.000000	0.203772
469.000000	0.196927
468.000000	0.190400
467.000000	0.183686
466.000000	0.177270
465.000000	0.170882
464.000000	0.164434
463.000000	0.158259
462.000000	0.152094
461.000000	0.146177
460.000000	0.140311
459.000000	0.134608
458.000000	0.129040
457.000000	0.123558
456.000000	0.118092
455.000000	0.112817
454.000000	0.107742
453.000000	0.102726
452.000000	0.097881
451.000000	0.093105
450.000000	0.088412
449.000000	0.083925
448.000000	0.079440
447.000000	0.075026
446.000000	0.071174
445.000000	0.066886
444.000000	0.062859
443.000000	0.059275
442.000000	0.055489
441.000000	0.052238
440.000000	0.048781
439.000000	0.045564
438.000000	0.042375
437.000000	0.039616
436.000000	0.036343
435.000000	0.033763
434.000000	0.030985
433.000000	0.028754
432.000000	0.025855
431.000000	0.023824
430.000000	0.021113
429.000000	0.019171
428.000000	0.016719
427.000000	0.014910
426.000000	0.012382
425.000000	0.011048
424.000000	0.009126
423.000000	0.007634
422.000000	0.005642
421.000000	0.004434
420.000000	0.002838
419.000000	0.001671
418.000000	0.000160
417.000000	-0.000859
416.000000	-0.002138
415.000000	-0.003146
414.000000	-0.004270
413.000000	-0.005243
412.000000	-0.006154
411.000000	-0.006872
410.000000	-0.007935
409.000000	-0.008509
408.000000	-0.009349
407.000000	-0.009937
406.000000	-0.010569
405.000000	-0.011211
404.000000	-0.011734
403.000000	-0.012138
402.000000	-0.012710
401.000000	-0.013034
400.000000	-0.013419
399.000000	-0.013947
398.000000	-0.013944
397.000000	-0.014471
396.000000	-0.014447
395.000000	-0.014768
394.000000	-0.014786
393.000000	-0.015082
392.000000	-0.015051
391.000000	-0.015129
390.000000	-0.015115
389.000000	-0.015100
388.000000	-0.015104
387.000000	-0.015049
386.000000	-0.014870
385.000000	-0.014796
384.000000	-0.014222
383.000000	-0.017030
382.000000	-0.018306
381.000000	-0.018094
380.000000	-0.017570
379.000000	-0.017603
378.000000	-0.017280
377.000000	-0.016752
376.000000	-0.016814
375.000000	-0.016148
374.000000	-0.016453
373.000000	-0.015524
372.000000	-0.015860
371.000000	-0.014822
370.000000	-0.014333
369.000000	-0.013706
368.000000	-0.012915
367.000000	-0.012278
366.000000	-0.011700
365.000000	-0.010543
364.000000	-0.010033
363.000000	-0.009297
362.000000	-0.007912
361.000000	-0.007281
360.000000	-0.005833
359.000000	-0.005430
358.000000	-0.003785
357.000000	-0.003348
356.000000	-0.001791
355.000000	-0.001021
354.000000	0.000825
353.000000	0.000696
352.000000	0.002122
351.000000	0.002461
350.000000	0.004003
349.000000	0.004033
348.000000	0.005226
347.000000	0.005437
346.000000	0.006558
345.000000	0.007084
344.000000	0.008347
343.000000	0.008666
342.000000	0.009687
341.000000	0.010475
340.000000	0.010361
339.000000	0.011187
338.000000	0.011193
337.000000	0.012197
336.000000	0.012310
335.000000	0.014367
334.000000	0.013419
333.000000	0.014772
332.000000	0.013426
331.000000	0.015859
330.000000	0.013876
329.000000	0.016641
328.000000	0.013535
327.000000	0.015015
326.000000	0.010915
325.000000	0.011316
324.000000	0.010674
323.000000	0.011108
322.000000	0.010341
321.000000	0.010616
320.000000	0.009635
319.000000	0.010109
318.000000	0.009222
317.000000	0.009249
316.000000	0.009171
315.000000	0.009309
314.000000	0.008948
313.000000	0.008960
312.000000	0.009173
311.000000	0.009314
310.000000	0.010409
309.000000	0.010889
308.000000	0.012810
307.000000	0.014009
306.000000	0.016853
305.000000	0.019284
304.000000	0.023082
303.000000	0.026428
302.000000	0.030903
301.000000	0.034346
300.000000	0.037741
299.000000	0.039124
298.000000	0.040573
297.000000	0.039205
296.000000	0.036612
295.000000	0.034534
294.000000	0.033617
293.000000	0.042191
292.000000	0.044073
291.000000	0.049458
290.000000	0.039960
289.000000	0.038851
288.000000	0.029940
287.000000	0.029746
286.000000	0.011375
285.000000	0.013145
284.000000	-0.014866
283.000000	-0.019232
282.000000	-0.069828
281.000000	-0.058884
280.000000	-0.064022
279.000000	-0.092234
278.000000	-0.002824
277.000000	-0.102903
276.000000	0.132044
275.000000	-0.180330
274.000000	0.079876
273.000000	-0.325159
272.000000	0.452484
271.000000	-0.369358
270.000000	0.028880
269.000000	-0.037942
268.000000	-0.178226
267.000000	-0.172163
266.000000	-0.244927
265.000000	-0.149637
264.000000	-0.223222
263.000000	0.234707
262.000000	-0.373531
261.000000	0.009038
260.000000	-0.630638
259.000000	0.267803
258.000000	-0.383210
257.000000	0.520807
256.000000	-0.474022
255.000000	10.000000
254.000000	-0.654675
253.000000	-0.201622
252.000000	-0.130151
251.000000	-0.217807
250.000000	-0.051829
249.000000	-0.431514
248.000000	-0.213513
247.000000	-0.304606
246.000000	10.000000
245.000000	10.000000
244.000000	0.132427
243.000000	-0.259000
242.000000	-0.116566
241.000000	10.000000
240.000000	-0.174722
239.000000	-0.417619
238.000000	-0.221274
237.000000	0.316779
236.000000	-0.678771
235.000000	-0.231471
234.000000	-0.147485
233.000000	0.006453
232.000000	-0.552615
231.000000	0.400415
230.000000	-0.764239
229.000000	0.214044
228.000000	0.174497
227.000000	0.019109
226.000000	-0.685703
225.000000	10.000000
224.000000	-2.274058
223.000000	10.000000
222.000000	-0.238286
221.000000	-3.303886
220.000000	10.000000
219.000000	-0.203417
218.000000	0.173209
217.000000	10.000000
216.000000	0.469057
215.000000	-0.547493
214.000000	10.000000
213.000000	-2.871819
212.000000	-0.266816
211.000000	-0.515092
210.000000	-2.762391
209.000000	-3.054652
208.000000	10.000000
207.000000	-2.990717
206.000000	-2.682706
205.000000	10.000000
204.000000	10.000000
203.000000	-0.204893
202.000000	-2.839292
201.000000	10.000000
200.000000	-3.023500
