PE UV       SUBTECH     SPECTRUM    ASCII       PEDS        4.00        
   -1
HCL_2.Sample.asc
23/09/27
16:33:11.00
23/09/27
16:33:11.00
Analyst

200.000000
1
Lambda 35
101N2082704
PerkinElmer UV WinLab 6.0.4.0738 / Lambda35 1.24

480
2
1
0
0
Both on
1
1
1
None
0
0
0
0
 
 
0
0
0
0
0
 
 
 
0
 
0
326
0
 
0
 
 
 
0
0
0
 
0
 
 
 
0
 
 
0
0
0
0
0
 
 
 
 
0
0


0
0
#HDR
-1
-1
#GR
nm
A
1.0
0.0
700.000000
-1.000000
501
8
10.000000
-2.767750
#DATA
700.000000	-0.016792
699.000000	-0.017017
698.000000	-0.016994
697.000000	-0.017116
696.000000	-0.016968
695.000000	-0.017049
694.000000	-0.017012
693.000000	-0.017269
692.000000	-0.017059
691.000000	-0.017178
690.000000	-0.017141
689.000000	-0.017214
688.000000	-0.017198
687.000000	-0.017320
686.000000	-0.017214
685.000000	-0.017391
684.000000	-0.017437
683.000000	-0.017699
682.000000	-0.017707
681.000000	-0.017726
680.000000	-0.017728
679.000000	-0.017780
678.000000	-0.017815
677.000000	-0.017858
676.000000	-0.017723
675.000000	-0.017968
674.000000	-0.017912
673.000000	-0.017917
672.000000	-0.017907
671.000000	-0.017982
670.000000	-0.018037
669.000000	-0.018016
668.000000	-0.018166
667.000000	-0.018117
666.000000	-0.018173
665.000000	-0.018098
664.000000	-0.018246
663.000000	-0.018187
662.000000	-0.018145
661.000000	-0.018149
660.000000	-0.018091
659.000000	-0.018056
658.000000	-0.018091
657.000000	-0.018078
656.000000	-0.018025
655.000000	-0.018070
654.000000	-0.018047
653.000000	-0.018013
652.000000	-0.018086
651.000000	-0.018091
650.000000	-0.018028
649.000000	-0.018136
648.000000	-0.018060
647.000000	-0.018101
646.000000	-0.018004
645.000000	-0.018072
644.000000	-0.018000
643.000000	-0.017895
642.000000	-0.017926
641.000000	-0.017915
640.000000	-0.017753
639.000000	-0.017666
638.000000	-0.017779
637.000000	-0.017646
636.000000	-0.017648
635.000000	-0.017458
634.000000	-0.017436
633.000000	-0.017378
632.000000	-0.017126
631.000000	-0.017038
630.000000	-0.016894
629.000000	-0.016801
628.000000	-0.016606
627.000000	-0.016405
626.000000	-0.016170
625.000000	-0.015914
624.000000	-0.015605
623.000000	-0.015327
622.000000	-0.014969
621.000000	-0.014694
620.000000	-0.014197
619.000000	-0.013721
618.000000	-0.013381
617.000000	-0.012654
616.000000	-0.011966
615.000000	-0.011413
614.000000	-0.010628
613.000000	-0.009767
612.000000	-0.008872
611.000000	-0.008058
610.000000	-0.006761
609.000000	-0.005398
608.000000	-0.003977
607.000000	-0.002308
606.000000	-0.000491
605.000000	0.001603
604.000000	0.003843
603.000000	0.006432
602.000000	0.009306
601.000000	0.012494
600.000000	0.015993
599.000000	0.020228
598.000000	0.024764
597.000000	0.029715
596.000000	0.035429
595.000000	0.041731
594.000000	0.048902
593.000000	0.056620
592.000000	0.065387
591.000000	0.075136
590.000000	0.085729
589.000000	0.097560
588.000000	0.110411
587.000000	0.124701
586.000000	0.140179
585.000000	0.157542
584.000000	0.176288
583.000000	0.197145
582.000000	0.219646
581.000000	0.244452
580.000000	0.271028
579.000000	0.300132
578.000000	0.330902
577.000000	0.364415
576.000000	0.399900
575.000000	0.438116
574.000000	0.478101
573.000000	0.521753
572.000000	0.566723
571.000000	0.614761
570.000000	0.664952
569.000000	0.717430
568.000000	0.771022
567.000000	0.826551
566.000000	0.883770
565.000000	0.941773
564.000000	1.000665
563.000000	1.060205
562.000000	1.120207
561.000000	1.179271
560.000000	1.237524
559.000000	1.301277
558.000000	1.357106
557.000000	1.413632
556.000000	1.466754
555.000000	1.519375
554.000000	1.569816
553.000000	1.619535
552.000000	1.665454
551.000000	1.710438
550.000000	1.751975
549.000000	1.791678
548.000000	1.828594
547.000000	1.861429
546.000000	1.894580
545.000000	1.924587
544.000000	1.953623
543.000000	1.977955
542.000000	2.003430
541.000000	2.022729
540.000000	2.046514
539.000000	2.060204
538.000000	2.080848
537.000000	2.095646
536.000000	2.114822
535.000000	2.127448
534.000000	2.142455
533.000000	2.153739
532.000000	2.167565
531.000000	2.174187
530.000000	2.190175
529.000000	2.202753
528.000000	2.210891
527.000000	2.223212
526.000000	2.229187
525.000000	2.242937
524.000000	2.245583
523.000000	2.252560
522.000000	2.257203
521.000000	2.269002
520.000000	2.268078
519.000000	2.279321
518.000000	2.276442
517.000000	2.281125
516.000000	2.277293
515.000000	2.274214
514.000000	2.270380
513.000000	2.271168
512.000000	2.263689
511.000000	2.255227
510.000000	2.246187
509.000000	2.237230
508.000000	2.227643
507.000000	2.205762
506.000000	2.199353
505.000000	2.176386
504.000000	2.164302
503.000000	2.143955
502.000000	2.125959
501.000000	2.099503
500.000000	2.082557
499.000000	2.052170
498.000000	2.032586
497.000000	2.004271
496.000000	1.980906
495.000000	1.954756
494.000000	1.926164
493.000000	1.897653
492.000000	1.868409
491.000000	1.837027
490.000000	1.807488
489.000000	1.778782
488.000000	1.746306
487.000000	1.714886
486.000000	1.681674
485.000000	1.649409
484.000000	1.614715
483.000000	1.579301
482.000000	1.545301
481.000000	1.511423
480.000000	1.475634
479.000000	1.440908
478.000000	1.404900
477.000000	1.369952
476.000000	1.333345
475.000000	1.297481
474.000000	1.262097
473.000000	1.227024
472.000000	1.192096
471.000000	1.156772
470.000000	1.122994
469.000000	1.088936
468.000000	1.055891
467.000000	1.022280
466.000000	0.990794
465.000000	0.958195
464.000000	0.927101
463.000000	0.895557
462.000000	0.865276
461.000000	0.834698
460.000000	0.805471
459.000000	0.775569
458.000000	0.747590
457.000000	0.719309
456.000000	0.692454
455.000000	0.665404
454.000000	0.639176
453.000000	0.613611
452.000000	0.588458
451.000000	0.563637
450.000000	0.539906
449.000000	0.516781
448.000000	0.494011
447.000000	0.471966
446.000000	0.450455
445.000000	0.430105
444.000000	0.409540
443.000000	0.390408
442.000000	0.371626
441.000000	0.354128
440.000000	0.336329
439.000000	0.319857
438.000000	0.303706
437.000000	0.288532
436.000000	0.273704
435.000000	0.259268
434.000000	0.245864
433.000000	0.232509
432.000000	0.219580
431.000000	0.207188
430.000000	0.195572
429.000000	0.184108
428.000000	0.173498
427.000000	0.162698
426.000000	0.153066
425.000000	0.143446
424.000000	0.134641
423.000000	0.125819
422.000000	0.117626
421.000000	0.109664
420.000000	0.102293
419.000000	0.095523
418.000000	0.088534
417.000000	0.082375
416.000000	0.076074
415.000000	0.070685
414.000000	0.065136
413.000000	0.060006
412.000000	0.055041
411.000000	0.050797
410.000000	0.046314
409.000000	0.042369
408.000000	0.038645
407.000000	0.035287
406.000000	0.031810
405.000000	0.028873
404.000000	0.026015
403.000000	0.023484
402.000000	0.020977
401.000000	0.018887
400.000000	0.016686
399.000000	0.014831
398.000000	0.013109
397.000000	0.011664
396.000000	0.010382
395.000000	0.009356
394.000000	0.008245
393.000000	0.007561
392.000000	0.006875
391.000000	0.006560
390.000000	0.006286
389.000000	0.006229
388.000000	0.006074
387.000000	0.006625
386.000000	0.006861
385.000000	0.007618
384.000000	0.008371
383.000000	0.005450
382.000000	0.006230
381.000000	0.005716
380.000000	0.008159
379.000000	0.008356
378.000000	0.010474
377.000000	0.010907
376.000000	0.013039
375.000000	0.014043
374.000000	0.015589
373.000000	0.018222
372.000000	0.019517
371.000000	0.022398
370.000000	0.024659
369.000000	0.027848
368.000000	0.030359
367.000000	0.034176
366.000000	0.036939
365.000000	0.041553
364.000000	0.044928
363.000000	0.049129
362.000000	0.053978
361.000000	0.058712
360.000000	0.063782
359.000000	0.068625
358.000000	0.074037
357.000000	0.078877
356.000000	0.084441
355.000000	0.089060
354.000000	0.094701
353.000000	0.098483
352.000000	0.104254
351.000000	0.107452
350.000000	0.112611
349.000000	0.115223
348.000000	0.120004
347.000000	0.122066
346.000000	0.127023
345.000000	0.129044
344.000000	0.133880
343.000000	0.135979
342.000000	0.139641
341.000000	0.143145
340.000000	0.145592
339.000000	0.147878
338.000000	0.150273
337.000000	0.153799
336.000000	0.154686
335.000000	0.157833
334.000000	0.157511
333.000000	0.160578
332.000000	0.159752
331.000000	0.161694
330.000000	0.160108
329.000000	0.162556
328.000000	0.160220
327.000000	0.161779
326.000000	0.157941
325.000000	0.158010
324.000000	0.157107
323.000000	0.156866
322.000000	0.155717
321.000000	0.155510
320.000000	0.154174
319.000000	0.153761
318.000000	0.152531
317.000000	0.152383
316.000000	0.151766
315.000000	0.151322
314.000000	0.151378
313.000000	0.152193
312.000000	0.153626
311.000000	0.155667
310.000000	0.159531
309.000000	0.164829
308.000000	0.172357
307.000000	0.181670
306.000000	0.194865
305.000000	0.209842
304.000000	0.228469
303.000000	0.247443
302.000000	0.269153
301.000000	0.288713
300.000000	0.307039
299.000000	0.319938
298.000000	0.330239
297.000000	0.335264
296.000000	0.335234
295.000000	0.335266
294.000000	0.334127
293.000000	0.343838
292.000000	0.346844
291.000000	0.356765
290.000000	0.344223
289.000000	0.349870
288.000000	0.334090
287.000000	0.345871
286.000000	0.308994
285.000000	0.333286
284.000000	0.277362
283.000000	0.235172
282.000000	0.209736
281.000000	0.262451
280.000000	0.212057
279.000000	0.116463
278.000000	0.241897
277.000000	0.082823
276.000000	0.444622
275.000000	-0.070604
274.000000	0.713285
273.000000	-0.148273
272.000000	0.891355
271.000000	-0.103622
270.000000	10.000000
269.000000	-0.034852
268.000000	0.593672
267.000000	-0.154413
266.000000	1.180188
265.000000	-0.209949
264.000000	0.245207
263.000000	-0.194632
262.000000	0.564437
261.000000	-0.273950
260.000000	-0.158565
259.000000	-0.245637
258.000000	-0.421452
257.000000	1.479403
256.000000	-0.246401
255.000000	10.000000
254.000000	-0.369388
253.000000	10.000000
252.000000	-0.115351
251.000000	10.000000
250.000000	-2.638532
249.000000	10.000000
248.000000	-0.429936
247.000000	10.000000
246.000000	-0.424947
245.000000	-0.252428
244.000000	0.755785
243.000000	-2.323396
242.000000	-2.767750
241.000000	0.598844
240.000000	0.001781
239.000000	-1.478093
238.000000	10.000000
237.000000	10.000000
236.000000	10.000000
235.000000	-0.115035
234.000000	10.000000
233.000000	-0.518599
232.000000	0.457200
231.000000	10.000000
230.000000	10.000000
229.000000	10.000000
228.000000	10.000000
227.000000	-0.416406
226.000000	10.000000
225.000000	-0.364360
224.000000	0.100458
223.000000	0.250255
222.000000	10.000000
221.000000	-0.009748
220.000000	-1.671442
219.000000	-1.810753
218.000000	-0.092511
217.000000	10.000000
216.000000	10.000000
215.000000	0.729682
214.000000	-0.485429
213.000000	10.000000
212.000000	-0.339152
211.000000	0.885162
210.000000	-0.196841
209.000000	10.000000
208.000000	-2.587928
207.000000	-2.127215
206.000000	-1.931991
205.000000	-1.886299
204.000000	-1.517853
203.000000	0.020667
202.000000	-0.235398
201.000000	-1.533929
200.000000	10.000000
