PE UV       SUBTECH     SPECTRUM    ASCII       PEDS        4.00        
   -1
NaOH_4.Sample.asc
23/09/27
16:58:34.00
23/09/27
16:58:34.00
Analyst

200.000000
1
Lambda 35
101N2082704
PerkinElmer UV WinLab 6.0.4.0738 / Lambda35 1.24

480
2
1
0
0
Both on
1
1
1
None
0
0
0
0
 
 
0
0
0
0
0
 
 
 
0
 
0
326
0
 
0
 
 
 
0
0
0
 
0
 
 
 
0
 
 
0
0
0
0
0
 
 
 
 
0
0


0
0
#HDR
-1
-1
#GR
nm
A
1.0
0.0
700.000000
-1.000000
501
8
10.000000
-1.347399
#DATA
700.000000	-0.009507
699.000000	-0.009584
698.000000	-0.009574
697.000000	-0.009713
696.000000	-0.009733
695.000000	-0.009708
694.000000	-0.009841
693.000000	-0.009789
692.000000	-0.009894
691.000000	-0.009851
690.000000	-0.009898
689.000000	-0.009879
688.000000	-0.010009
687.000000	-0.010050
686.000000	-0.009951
685.000000	-0.010080
684.000000	-0.010197
683.000000	-0.010457
682.000000	-0.010430
681.000000	-0.010619
680.000000	-0.010449
679.000000	-0.010643
678.000000	-0.010635
677.000000	-0.010795
676.000000	-0.010610
675.000000	-0.010821
674.000000	-0.010668
673.000000	-0.010800
672.000000	-0.010712
671.000000	-0.010877
670.000000	-0.010865
669.000000	-0.010898
668.000000	-0.010939
667.000000	-0.010893
666.000000	-0.010919
665.000000	-0.010936
664.000000	-0.010890
663.000000	-0.011021
662.000000	-0.010966
661.000000	-0.011117
660.000000	-0.011001
659.000000	-0.011111
658.000000	-0.011060
657.000000	-0.011216
656.000000	-0.010948
655.000000	-0.011086
654.000000	-0.010924
653.000000	-0.011139
652.000000	-0.010978
651.000000	-0.011144
650.000000	-0.011026
649.000000	-0.011161
648.000000	-0.011027
647.000000	-0.011141
646.000000	-0.010942
645.000000	-0.011061
644.000000	-0.010991
643.000000	-0.011003
642.000000	-0.011046
641.000000	-0.011091
640.000000	-0.011002
639.000000	-0.010860
638.000000	-0.011091
637.000000	-0.011002
636.000000	-0.011185
635.000000	-0.010973
634.000000	-0.011182
633.000000	-0.011112
632.000000	-0.011245
631.000000	-0.011110
630.000000	-0.011117
629.000000	-0.011117
628.000000	-0.011316
627.000000	-0.011193
626.000000	-0.011431
625.000000	-0.011189
624.000000	-0.011343
623.000000	-0.011239
622.000000	-0.011325
621.000000	-0.011293
620.000000	-0.011415
619.000000	-0.011254
618.000000	-0.011574
617.000000	-0.011212
616.000000	-0.011366
615.000000	-0.011418
614.000000	-0.011434
613.000000	-0.011475
612.000000	-0.011602
611.000000	-0.011721
610.000000	-0.011616
609.000000	-0.011632
608.000000	-0.011590
607.000000	-0.011659
606.000000	-0.011666
605.000000	-0.011628
604.000000	-0.011653
603.000000	-0.011422
602.000000	-0.011581
601.000000	-0.011518
600.000000	-0.011725
599.000000	-0.011602
598.000000	-0.011754
597.000000	-0.011754
596.000000	-0.011713
595.000000	-0.011736
594.000000	-0.011770
593.000000	-0.011750
592.000000	-0.011762
591.000000	-0.011725
590.000000	-0.011762
589.000000	-0.011746
588.000000	-0.011739
587.000000	-0.011701
586.000000	-0.011722
585.000000	-0.011798
584.000000	-0.011863
583.000000	-0.011845
582.000000	-0.011854
581.000000	-0.011851
580.000000	-0.011779
579.000000	-0.011763
578.000000	-0.011838
577.000000	-0.012035
576.000000	-0.011842
575.000000	-0.011884
574.000000	-0.011768
573.000000	-0.011920
572.000000	-0.011791
571.000000	-0.011899
570.000000	-0.011796
569.000000	-0.011934
568.000000	-0.011840
567.000000	-0.011853
566.000000	-0.011703
565.000000	-0.011687
564.000000	-0.011768
563.000000	-0.011668
562.000000	-0.011670
561.000000	-0.011553
560.000000	-0.011689
559.000000	-0.011449
558.000000	-0.011584
557.000000	-0.011439
556.000000	-0.011530
555.000000	-0.011124
554.000000	-0.011392
553.000000	-0.011160
552.000000	-0.011259
551.000000	-0.010918
550.000000	-0.011021
549.000000	-0.010536
548.000000	-0.010628
547.000000	-0.010268
546.000000	-0.010501
545.000000	-0.009976
544.000000	-0.010125
543.000000	-0.009665
542.000000	-0.009639
541.000000	-0.009104
540.000000	-0.009104
539.000000	-0.008610
538.000000	-0.008572
537.000000	-0.008073
536.000000	-0.007857
535.000000	-0.007402
534.000000	-0.007201
533.000000	-0.006497
532.000000	-0.006368
531.000000	-0.005653
530.000000	-0.005460
529.000000	-0.004743
528.000000	-0.004338
527.000000	-0.003583
526.000000	-0.003001
525.000000	-0.002314
524.000000	-0.001746
523.000000	-0.001061
522.000000	-0.000253
521.000000	0.000501
520.000000	0.001302
519.000000	0.002197
518.000000	0.003150
517.000000	0.004228
516.000000	0.005359
515.000000	0.006414
514.000000	0.007625
513.000000	0.008567
512.000000	0.010104
511.000000	0.011434
510.000000	0.013008
509.000000	0.014331
508.000000	0.015982
507.000000	0.017247
506.000000	0.018196
505.000000	0.020565
504.000000	0.022628
503.000000	0.024121
502.000000	0.026343
501.000000	0.028125
500.000000	0.030300
499.000000	0.032112
498.000000	0.034392
497.000000	0.036224
496.000000	0.038629
495.000000	0.040585
494.000000	0.043032
493.000000	0.045089
492.000000	0.047622
491.000000	0.049686
490.000000	0.052324
489.000000	0.054414
488.000000	0.057106
487.000000	0.059264
486.000000	0.062110
485.000000	0.064385
484.000000	0.067126
483.000000	0.069338
482.000000	0.072214
481.000000	0.074358
480.000000	0.077201
479.000000	0.079418
478.000000	0.082145
477.000000	0.084415
476.000000	0.087073
475.000000	0.089233
474.000000	0.092024
473.000000	0.093947
472.000000	0.096510
471.000000	0.098513
470.000000	0.100948
469.000000	0.102752
468.000000	0.105222
467.000000	0.107103
466.000000	0.109246
465.000000	0.111099
464.000000	0.113135
463.000000	0.114759
462.000000	0.116778
461.000000	0.118263
460.000000	0.120452
459.000000	0.121921
458.000000	0.123598
457.000000	0.125021
456.000000	0.126431
455.000000	0.127667
454.000000	0.128824
453.000000	0.130183
452.000000	0.131063
451.000000	0.132347
450.000000	0.133033
449.000000	0.134103
448.000000	0.134636
447.000000	0.135715
446.000000	0.136120
445.000000	0.137058
444.000000	0.136839
443.000000	0.137666
442.000000	0.137813
441.000000	0.138623
440.000000	0.138435
439.000000	0.138910
438.000000	0.138753
437.000000	0.139365
436.000000	0.138970
435.000000	0.139206
434.000000	0.138933
433.000000	0.139176
432.000000	0.138791
431.000000	0.138682
430.000000	0.138400
429.000000	0.138108
428.000000	0.137684
427.000000	0.137235
426.000000	0.136745
425.000000	0.136366
424.000000	0.136055
423.000000	0.135330
422.000000	0.134724
421.000000	0.134232
420.000000	0.133497
419.000000	0.133168
418.000000	0.132157
417.000000	0.131821
416.000000	0.130773
415.000000	0.130165
414.000000	0.129232
413.000000	0.128454
412.000000	0.127531
411.000000	0.126876
410.000000	0.125795
409.000000	0.124989
408.000000	0.124084
407.000000	0.123190
406.000000	0.122394
405.000000	0.121272
404.000000	0.120538
403.000000	0.119566
402.000000	0.118706
401.000000	0.117703
400.000000	0.117013
399.000000	0.115840
398.000000	0.115216
397.000000	0.114058
396.000000	0.113481
395.000000	0.112388
394.000000	0.111703
393.000000	0.110770
392.000000	0.109974
391.000000	0.109109
390.000000	0.108336
389.000000	0.107211
388.000000	0.106460
387.000000	0.105785
386.000000	0.104856
385.000000	0.104091
384.000000	0.103171
383.000000	0.099227
382.000000	0.100201
381.000000	0.095979
380.000000	0.098100
379.000000	0.094421
378.000000	0.095346
377.000000	0.092398
376.000000	0.092639
375.000000	0.090300
374.000000	0.089500
373.000000	0.088016
372.000000	0.086699
371.000000	0.085243
370.000000	0.083733
369.000000	0.082605
368.000000	0.081130
367.000000	0.079738
366.000000	0.077426
365.000000	0.076757
364.000000	0.074049
363.000000	0.073374
362.000000	0.070842
361.000000	0.069749
360.000000	0.067533
359.000000	0.066242
358.000000	0.063693
357.000000	0.062634
356.000000	0.059986
355.000000	0.058950
354.000000	0.056958
353.000000	0.054758
352.000000	0.053205
351.000000	0.051190
350.000000	0.050094
349.000000	0.047813
348.000000	0.047212
347.000000	0.044699
346.000000	0.044153
345.000000	0.041062
344.000000	0.041640
343.000000	0.039412
342.000000	0.039263
341.000000	0.036960
340.000000	0.036897
339.000000	0.034922
338.000000	0.035292
337.000000	0.034302
336.000000	0.034164
335.000000	0.034122
334.000000	0.033672
333.000000	0.034172
332.000000	0.033880
331.000000	0.035108
330.000000	0.033321
329.000000	0.035474
328.000000	0.032936
327.000000	0.033967
326.000000	0.029634
325.000000	0.029555
324.000000	0.029301
323.000000	0.029399
322.000000	0.029129
321.000000	0.029246
320.000000	0.028725
319.000000	0.029204
318.000000	0.029054
317.000000	0.029459
316.000000	0.029210
315.000000	0.029547
314.000000	0.029217
313.000000	0.029673
312.000000	0.029033
311.000000	0.029386
310.000000	0.029078
309.000000	0.029289
308.000000	0.029165
307.000000	0.029169
306.000000	0.029229
305.000000	0.028718
304.000000	0.028807
303.000000	0.028547
302.000000	0.028580
301.000000	0.028215
300.000000	0.028351
299.000000	0.026911
298.000000	0.026612
297.000000	0.024204
296.000000	0.022234
295.000000	0.019849
294.000000	0.021589
293.000000	0.023974
292.000000	0.037742
291.000000	0.033757
290.000000	0.032041
289.000000	0.029557
288.000000	0.025306
287.000000	0.019384
286.000000	0.017881
285.000000	0.047302
284.000000	-0.016196
283.000000	0.059946
282.000000	-0.004397
281.000000	0.119622
280.000000	-0.093470
279.000000	0.164805
278.000000	0.010953
277.000000	0.122063
276.000000	-0.132528
275.000000	0.221971
274.000000	-0.209779
273.000000	0.168588
272.000000	-0.201914
271.000000	0.141789
270.000000	-0.157262
269.000000	0.006916
268.000000	-0.089622
267.000000	-0.054864
266.000000	-0.022819
265.000000	-0.967333
264.000000	-1.065286
263.000000	-0.107697
262.000000	10.000000
261.000000	-1.290084
260.000000	0.379741
259.000000	-0.248665
258.000000	0.969748
257.000000	-0.494725
256.000000	0.518013
255.000000	-0.661236
254.000000	10.000000
253.000000	-0.971442
252.000000	-0.060169
251.000000	-0.095843
250.000000	-1.266679
249.000000	-0.937913
248.000000	-0.310579
247.000000	1.603533
246.000000	-0.180644
245.000000	10.000000
244.000000	-0.468207
243.000000	10.000000
242.000000	-1.035117
241.000000	0.485087
240.000000	-0.868860
239.000000	0.029276
238.000000	-0.391895
237.000000	10.000000
236.000000	-0.663325
235.000000	0.507885
234.000000	-0.547950
233.000000	-1.156696
232.000000	-0.620391
231.000000	-0.516597
230.000000	10.000000
229.000000	0.180315
228.000000	1.428973
227.000000	-0.117034
226.000000	10.000000
225.000000	1.321331
224.000000	-0.170206
223.000000	-1.347399
222.000000	10.000000
221.000000	1.802244
220.000000	-0.011782
219.000000	-0.608455
218.000000	0.324083
217.000000	-1.295724
216.000000	10.000000
215.000000	10.000000
214.000000	10.000000
213.000000	0.655058
212.000000	1.034282
211.000000	0.026361
210.000000	-0.620706
209.000000	-0.556944
208.000000	10.000000
207.000000	0.474319
206.000000	-0.778189
205.000000	-0.937230
204.000000	10.000000
203.000000	-0.298147
202.000000	-0.777182
201.000000	-0.258460
200.000000	-0.724546
