PE UV       SUBTECH     SPECTRUM    ASCII       PEDS        4.00        
   -1
NaOH_3.Sample.Raw.asc
23/09/27
16:55:53.00
23/09/27
16:55:53.00
Analyst

200.000000
1
Lambda 35
101N2082704
PerkinElmer UV WinLab 6.0.4.0738 / Lambda35 1.24

480
2
1
0
0
Both on
1
1
1
None
0
0
0
0
 
 
0
0
0
0
0
 
 
 
0
 
0
326
0
 
0
 
 
 
0
0
0
 
0
 
 
 
0
 
 
0
0
0
0
0
 
 
 
 
0
0


0
0
#HDR
-1
-1
#GR
nm
A
1.0
0.0
700.000000
-1.000000
501
8
10.000000
-1.003150
#DATA
700.000000	-0.010285
699.000000	-0.010377
698.000000	-0.010376
697.000000	-0.010468
696.000000	-0.010459
695.000000	-0.010549
694.000000	-0.010563
693.000000	-0.010645
692.000000	-0.010583
691.000000	-0.010621
690.000000	-0.010649
689.000000	-0.010702
688.000000	-0.010770
687.000000	-0.010826
686.000000	-0.010841
685.000000	-0.010950
684.000000	-0.011144
683.000000	-0.011347
682.000000	-0.011373
681.000000	-0.011466
680.000000	-0.011349
679.000000	-0.011519
678.000000	-0.011516
677.000000	-0.011586
676.000000	-0.011501
675.000000	-0.011712
674.000000	-0.011745
673.000000	-0.011753
672.000000	-0.011737
671.000000	-0.011859
670.000000	-0.011795
669.000000	-0.011957
668.000000	-0.011912
667.000000	-0.012004
666.000000	-0.012036
665.000000	-0.012063
664.000000	-0.012021
663.000000	-0.012104
662.000000	-0.012060
661.000000	-0.012230
660.000000	-0.012018
659.000000	-0.012080
658.000000	-0.012025
657.000000	-0.012195
656.000000	-0.012033
655.000000	-0.012133
654.000000	-0.012005
653.000000	-0.012148
652.000000	-0.012136
651.000000	-0.012287
650.000000	-0.012136
649.000000	-0.012358
648.000000	-0.012224
647.000000	-0.012296
646.000000	-0.012164
645.000000	-0.012297
644.000000	-0.012256
643.000000	-0.012316
642.000000	-0.012312
641.000000	-0.012472
640.000000	-0.012364
639.000000	-0.012381
638.000000	-0.012435
637.000000	-0.012476
636.000000	-0.012486
635.000000	-0.012462
634.000000	-0.012479
633.000000	-0.012554
632.000000	-0.012543
631.000000	-0.012538
630.000000	-0.012503
629.000000	-0.012503
628.000000	-0.012563
627.000000	-0.012522
626.000000	-0.012659
625.000000	-0.012568
624.000000	-0.012592
623.000000	-0.012672
622.000000	-0.012628
621.000000	-0.012611
620.000000	-0.012710
619.000000	-0.012530
618.000000	-0.012817
617.000000	-0.012490
616.000000	-0.012663
615.000000	-0.012629
614.000000	-0.012685
613.000000	-0.012532
612.000000	-0.012786
611.000000	-0.012663
610.000000	-0.012729
609.000000	-0.012532
608.000000	-0.012680
607.000000	-0.012565
606.000000	-0.012729
605.000000	-0.012462
604.000000	-0.012595
603.000000	-0.012248
602.000000	-0.012480
601.000000	-0.012331
600.000000	-0.012470
599.000000	-0.012279
598.000000	-0.012338
597.000000	-0.012190
596.000000	-0.012342
595.000000	-0.012154
594.000000	-0.012188
593.000000	-0.012104
592.000000	-0.012112
591.000000	-0.012020
590.000000	-0.012043
589.000000	-0.011864
588.000000	-0.011946
587.000000	-0.011770
586.000000	-0.011855
585.000000	-0.011656
584.000000	-0.011759
583.000000	-0.011589
582.000000	-0.011697
581.000000	-0.011511
580.000000	-0.011622
579.000000	-0.011341
578.000000	-0.011587
577.000000	-0.011416
576.000000	-0.011429
575.000000	-0.011197
574.000000	-0.011355
573.000000	-0.011144
572.000000	-0.011256
571.000000	-0.010996
570.000000	-0.011095
569.000000	-0.010864
568.000000	-0.010952
567.000000	-0.010435
566.000000	-0.010672
565.000000	-0.010288
564.000000	-0.010468
563.000000	-0.010064
562.000000	-0.010120
561.000000	-0.009781
560.000000	-0.009883
559.000000	-0.009425
558.000000	-0.009417
557.000000	-0.009238
556.000000	-0.009038
555.000000	-0.008694
554.000000	-0.008623
553.000000	-0.008365
552.000000	-0.008049
551.000000	-0.007652
550.000000	-0.007393
549.000000	-0.007015
548.000000	-0.006705
547.000000	-0.006317
546.000000	-0.006023
545.000000	-0.005425
544.000000	-0.005134
543.000000	-0.004470
542.000000	-0.003953
541.000000	-0.003263
540.000000	-0.002764
539.000000	-0.002032
538.000000	-0.001334
537.000000	-0.000534
536.000000	0.000353
535.000000	0.001187
534.000000	0.002130
533.000000	0.003013
532.000000	0.004205
531.000000	0.005119
530.000000	0.006467
529.000000	0.007485
528.000000	0.008999
527.000000	0.010211
526.000000	0.011942
525.000000	0.013207
524.000000	0.015114
523.000000	0.016548
522.000000	0.018872
521.000000	0.020477
520.000000	0.022800
519.000000	0.024680
518.000000	0.027243
517.000000	0.029397
516.000000	0.032347
515.000000	0.034607
514.000000	0.037798
513.000000	0.040358
512.000000	0.043604
511.000000	0.046631
510.000000	0.050254
509.000000	0.053530
508.000000	0.057399
507.000000	0.060922
506.000000	0.065118
505.000000	0.068849
504.000000	0.073254
503.000000	0.077471
502.000000	0.082081
501.000000	0.086542
500.000000	0.091331
499.000000	0.095984
498.000000	0.101098
497.000000	0.105968
496.000000	0.111208
495.000000	0.116233
494.000000	0.121863
493.000000	0.127107
492.000000	0.132885
491.000000	0.138344
490.000000	0.144029
489.000000	0.149786
488.000000	0.155765
487.000000	0.161385
486.000000	0.167504
485.000000	0.173325
484.000000	0.179383
483.000000	0.185404
482.000000	0.191443
481.000000	0.197471
480.000000	0.203566
479.000000	0.209485
478.000000	0.215303
477.000000	0.221538
476.000000	0.226993
475.000000	0.233223
474.000000	0.238746
473.000000	0.244386
472.000000	0.249705
471.000000	0.255276
470.000000	0.260380
469.000000	0.265429
468.000000	0.270547
467.000000	0.275388
466.000000	0.280144
465.000000	0.284605
464.000000	0.288947
463.000000	0.293356
462.000000	0.297324
461.000000	0.301204
460.000000	0.305378
459.000000	0.308829
458.000000	0.312546
457.000000	0.315749
456.000000	0.319071
455.000000	0.321789
454.000000	0.324986
453.000000	0.327323
452.000000	0.329864
451.000000	0.331943
450.000000	0.334499
449.000000	0.335977
448.000000	0.338251
447.000000	0.339700
446.000000	0.341425
445.000000	0.342557
444.000000	0.343594
443.000000	0.344365
442.000000	0.345536
441.000000	0.346275
440.000000	0.346801
439.000000	0.347201
438.000000	0.347323
437.000000	0.347650
436.000000	0.347545
435.000000	0.347686
434.000000	0.347251
433.000000	0.347418
432.000000	0.346599
431.000000	0.346440
430.000000	0.345760
429.000000	0.344989
428.000000	0.344229
427.000000	0.343171
426.000000	0.341918
425.000000	0.341357
424.000000	0.339876
423.000000	0.338989
422.000000	0.337403
421.000000	0.336205
420.000000	0.334278
419.000000	0.332930
418.000000	0.331140
417.000000	0.329458
416.000000	0.327587
415.000000	0.325675
414.000000	0.323865
413.000000	0.321788
412.000000	0.319838
411.000000	0.317851
410.000000	0.315448
409.000000	0.313600
408.000000	0.311217
407.000000	0.309048
406.000000	0.306715
405.000000	0.304434
404.000000	0.302222
403.000000	0.299877
402.000000	0.297647
401.000000	0.295358
400.000000	0.292970
399.000000	0.290530
398.000000	0.288305
397.000000	0.285861
396.000000	0.283776
395.000000	0.281309
394.000000	0.279082
393.000000	0.276625
392.000000	0.274372
391.000000	0.271888
390.000000	0.269648
389.000000	0.267089
388.000000	0.264813
387.000000	0.262299
386.000000	0.259894
385.000000	0.257286
384.000000	0.254754
383.000000	0.251918
382.000000	0.248623
381.000000	0.245380
380.000000	0.242319
379.000000	0.239576
378.000000	0.236555
377.000000	0.233773
376.000000	0.230700
375.000000	0.227300
374.000000	0.223662
373.000000	0.220742
372.000000	0.216885
371.000000	0.213295
370.000000	0.210043
369.000000	0.206399
368.000000	0.202630
367.000000	0.198470
366.000000	0.194831
365.000000	0.190199
364.000000	0.186564
363.000000	0.181477
362.000000	0.177689
361.000000	0.173431
360.000000	0.169502
359.000000	0.164252
358.000000	0.160131
357.000000	0.155134
356.000000	0.151356
355.000000	0.146675
354.000000	0.142498
353.000000	0.137306
352.000000	0.134128
351.000000	0.128696
350.000000	0.125457
349.000000	0.120834
348.000000	0.117097
347.000000	0.113132
346.000000	0.110071
345.000000	0.105953
344.000000	0.102596
343.000000	0.099936
342.000000	0.096844
341.000000	0.094440
340.000000	0.091043
339.000000	0.089057
338.000000	0.086824
337.000000	0.086429
336.000000	0.084684
335.000000	0.085088
334.000000	0.083133
333.000000	0.084415
332.000000	0.082772
331.000000	0.084348
330.000000	0.083417
329.000000	0.085207
328.000000	0.082242
327.000000	0.084493
326.000000	0.078866
325.000000	0.078846
324.000000	0.078401
323.000000	0.078306
322.000000	0.077707
321.000000	0.078385
320.000000	0.077811
319.000000	0.078404
318.000000	0.078157
317.000000	0.078468
316.000000	0.078271
315.000000	0.078589
314.000000	0.078211
313.000000	0.078387
312.000000	0.077690
311.000000	0.077628
310.000000	0.077132
309.000000	0.077387
308.000000	0.076748
307.000000	0.077029
306.000000	0.076941
305.000000	0.076597
304.000000	0.076399
303.000000	0.076500
302.000000	0.076584
301.000000	0.076455
300.000000	0.076518
299.000000	0.075710
298.000000	0.075868
297.000000	0.074251
296.000000	0.073141
295.000000	0.071081
294.000000	0.073947
293.000000	0.076887
292.000000	0.091489
291.000000	0.088460
290.000000	0.094852
289.000000	0.083105
288.000000	0.094219
287.000000	0.080355
286.000000	0.087383
285.000000	0.076261
284.000000	0.120997
283.000000	0.092737
282.000000	0.168836
281.000000	0.145201
280.000000	0.351112
279.000000	0.137503
278.000000	0.102109
277.000000	0.060772
276.000000	0.081595
275.000000	0.176381
274.000000	0.000518
273.000000	0.430021
272.000000	-0.011307
271.000000	0.490636
270.000000	-0.104950
269.000000	1.945888
268.000000	0.106035
267.000000	0.576639
266.000000	-0.231099
265.000000	10.000000
264.000000	-0.009950
263.000000	10.000000
262.000000	0.286903
261.000000	10.000000
260.000000	-0.202102
259.000000	10.000000
258.000000	10.000000
257.000000	10.000000
256.000000	0.703184
255.000000	10.000000
254.000000	0.445948
253.000000	10.000000
252.000000	-0.343884
251.000000	0.713427
250.000000	10.000000
249.000000	10.000000
248.000000	10.000000
247.000000	10.000000
246.000000	10.000000
245.000000	10.000000
244.000000	10.000000
243.000000	-0.259458
242.000000	10.000000
241.000000	-0.971972
240.000000	10.000000
239.000000	0.338895
238.000000	10.000000
237.000000	10.000000
236.000000	0.687067
235.000000	-0.299860
234.000000	10.000000
233.000000	10.000000
232.000000	0.550274
231.000000	10.000000
230.000000	-0.655548
229.000000	10.000000
228.000000	0.848443
227.000000	0.221718
226.000000	0.526703
225.000000	10.000000
224.000000	10.000000
223.000000	10.000000
222.000000	10.000000
221.000000	10.000000
220.000000	-0.878593
219.000000	0.699117
218.000000	10.000000
217.000000	10.000000
216.000000	10.000000
215.000000	10.000000
214.000000	-0.875771
213.000000	10.000000
212.000000	10.000000
211.000000	10.000000
210.000000	0.389851
209.000000	10.000000
208.000000	0.596557
207.000000	-1.003150
206.000000	10.000000
205.000000	10.000000
204.000000	10.000000
203.000000	-0.603280
202.000000	0.331833
201.000000	1.375211
200.000000	10.000000
