PE UV       SUBTECH     SPECTRUM    ASCII       PEDS        4.00        
   -1
NaOH_5.Sample.asc
23/09/27
17:02:57.00
23/09/27
17:02:57.00
Analyst

200.000000
1
Lambda 35
101N2082704
PerkinElmer UV WinLab 6.0.4.0738 / Lambda35 1.24

480
2
1
0
0
Both on
1
1
1
None
0
0
0
0
 
 
0
0
0
0
0
 
 
 
0
 
0
326
0
 
0
 
 
 
0
0
0
 
0
 
 
 
0
 
 
0
0
0
0
0
 
 
 
 
0
0


0
0
#HDR
-1
-1
#GR
nm
A
1.0
0.0
700.000000
-1.000000
501
8
10.000000
-0.899567
#DATA
700.000000	-0.014348
699.000000	-0.014563
698.000000	-0.014427
697.000000	-0.014539
696.000000	-0.014629
695.000000	-0.014691
694.000000	-0.014663
693.000000	-0.014727
692.000000	-0.014789
691.000000	-0.014790
690.000000	-0.014828
689.000000	-0.014773
688.000000	-0.014964
687.000000	-0.014945
686.000000	-0.014942
685.000000	-0.015113
684.000000	-0.015230
683.000000	-0.015393
682.000000	-0.015551
681.000000	-0.015617
680.000000	-0.015647
679.000000	-0.015547
678.000000	-0.015658
677.000000	-0.015672
676.000000	-0.015668
675.000000	-0.015743
674.000000	-0.015974
673.000000	-0.015828
672.000000	-0.015884
671.000000	-0.015954
670.000000	-0.016032
669.000000	-0.016024
668.000000	-0.016123
667.000000	-0.016163
666.000000	-0.016209
665.000000	-0.016157
664.000000	-0.016319
663.000000	-0.016208
662.000000	-0.016288
661.000000	-0.016311
660.000000	-0.016304
659.000000	-0.016235
658.000000	-0.016290
657.000000	-0.016427
656.000000	-0.016270
655.000000	-0.016414
654.000000	-0.016325
653.000000	-0.016492
652.000000	-0.016448
651.000000	-0.016566
650.000000	-0.016436
649.000000	-0.016676
648.000000	-0.016487
647.000000	-0.016777
646.000000	-0.016614
645.000000	-0.016734
644.000000	-0.016685
643.000000	-0.016683
642.000000	-0.016723
641.000000	-0.016855
640.000000	-0.016735
639.000000	-0.016823
638.000000	-0.016893
637.000000	-0.016892
636.000000	-0.016942
635.000000	-0.016880
634.000000	-0.016961
633.000000	-0.017060
632.000000	-0.016993
631.000000	-0.017109
630.000000	-0.016937
629.000000	-0.017049
628.000000	-0.017053
627.000000	-0.017129
626.000000	-0.017142
625.000000	-0.017226
624.000000	-0.017065
623.000000	-0.017290
622.000000	-0.017115
621.000000	-0.017320
620.000000	-0.017215
619.000000	-0.017268
618.000000	-0.017350
617.000000	-0.017190
616.000000	-0.017255
615.000000	-0.017397
614.000000	-0.017249
613.000000	-0.017335
612.000000	-0.017461
611.000000	-0.017584
610.000000	-0.017590
609.000000	-0.017596
608.000000	-0.017487
607.000000	-0.017404
606.000000	-0.017582
605.000000	-0.017440
604.000000	-0.017552
603.000000	-0.017346
602.000000	-0.017431
601.000000	-0.017324
600.000000	-0.017524
599.000000	-0.017328
598.000000	-0.017546
597.000000	-0.017513
596.000000	-0.017545
595.000000	-0.017444
594.000000	-0.017470
593.000000	-0.017472
592.000000	-0.017524
591.000000	-0.017322
590.000000	-0.017443
589.000000	-0.017398
588.000000	-0.017450
587.000000	-0.017270
586.000000	-0.017471
585.000000	-0.017239
584.000000	-0.017415
583.000000	-0.017269
582.000000	-0.017444
581.000000	-0.017303
580.000000	-0.017425
579.000000	-0.017241
578.000000	-0.017519
577.000000	-0.017358
576.000000	-0.017549
575.000000	-0.017292
574.000000	-0.017595
573.000000	-0.017355
572.000000	-0.017590
571.000000	-0.017438
570.000000	-0.017666
569.000000	-0.017495
568.000000	-0.017692
567.000000	-0.017412
566.000000	-0.017660
565.000000	-0.017400
564.000000	-0.017748
563.000000	-0.017432
562.000000	-0.017648
561.000000	-0.017487
560.000000	-0.017685
559.000000	-0.017384
558.000000	-0.017581
557.000000	-0.017476
556.000000	-0.017659
555.000000	-0.017454
554.000000	-0.017605
553.000000	-0.017516
552.000000	-0.017628
551.000000	-0.017362
550.000000	-0.017641
549.000000	-0.017355
548.000000	-0.017491
547.000000	-0.017319
546.000000	-0.017515
545.000000	-0.017339
544.000000	-0.017414
543.000000	-0.017312
542.000000	-0.017241
541.000000	-0.017146
540.000000	-0.017043
539.000000	-0.017106
538.000000	-0.016926
537.000000	-0.016922
536.000000	-0.016717
535.000000	-0.016855
534.000000	-0.016588
533.000000	-0.016644
532.000000	-0.016408
531.000000	-0.016480
530.000000	-0.016257
529.000000	-0.016276
528.000000	-0.016008
527.000000	-0.016049
526.000000	-0.015716
525.000000	-0.015835
524.000000	-0.015528
523.000000	-0.015501
522.000000	-0.015097
521.000000	-0.015199
520.000000	-0.014861
519.000000	-0.014842
518.000000	-0.014392
517.000000	-0.014435
516.000000	-0.013998
515.000000	-0.014079
514.000000	-0.013540
513.000000	-0.013663
512.000000	-0.013028
511.000000	-0.013038
510.000000	-0.012487
509.000000	-0.012402
508.000000	-0.011817
507.000000	-0.011781
506.000000	-0.011162
505.000000	-0.011105
504.000000	-0.010612
503.000000	-0.010321
502.000000	-0.009810
501.000000	-0.009500
500.000000	-0.009132
499.000000	-0.008807
498.000000	-0.008268
497.000000	-0.007998
496.000000	-0.007547
495.000000	-0.007185
494.000000	-0.006456
493.000000	-0.006200
492.000000	-0.005504
491.000000	-0.005282
490.000000	-0.004671
489.000000	-0.004383
488.000000	-0.003686
487.000000	-0.003461
486.000000	-0.002716
485.000000	-0.002409
484.000000	-0.001756
483.000000	-0.001508
482.000000	-0.000427
481.000000	-0.000595
480.000000	0.000168
479.000000	0.000494
478.000000	0.001065
477.000000	0.001672
476.000000	0.002082
475.000000	0.002640
474.000000	0.002963
473.000000	0.003580
472.000000	0.003833
471.000000	0.004478
470.000000	0.004844
469.000000	0.005245
468.000000	0.005772
467.000000	0.006345
466.000000	0.006503
465.000000	0.007120
464.000000	0.007224
463.000000	0.007853
462.000000	0.008040
461.000000	0.008398
460.000000	0.008797
459.000000	0.009254
458.000000	0.009734
457.000000	0.009801
456.000000	0.010313
455.000000	0.010358
454.000000	0.010965
453.000000	0.011076
452.000000	0.011303
451.000000	0.011485
450.000000	0.011881
449.000000	0.012073
448.000000	0.012241
447.000000	0.012327
446.000000	0.012553
445.000000	0.012714
444.000000	0.012795
443.000000	0.012945
442.000000	0.012874
441.000000	0.013385
440.000000	0.013029
439.000000	0.013461
438.000000	0.013283
437.000000	0.013654
436.000000	0.013248
435.000000	0.013596
434.000000	0.013346
433.000000	0.013679
432.000000	0.013409
431.000000	0.013352
430.000000	0.013392
429.000000	0.013197
428.000000	0.013239
427.000000	0.012927
426.000000	0.012843
425.000000	0.012689
424.000000	0.012936
423.000000	0.012474
422.000000	0.012710
421.000000	0.012218
420.000000	0.012130
419.000000	0.012228
418.000000	0.011944
417.000000	0.011944
416.000000	0.011674
415.000000	0.011513
414.000000	0.011426
413.000000	0.011113
412.000000	0.011077
411.000000	0.011004
410.000000	0.010747
409.000000	0.010602
408.000000	0.010519
407.000000	0.010175
406.000000	0.010141
405.000000	0.009803
404.000000	0.009719
403.000000	0.009633
402.000000	0.009371
401.000000	0.009270
400.000000	0.009127
399.000000	0.008878
398.000000	0.008897
397.000000	0.008599
396.000000	0.008591
395.000000	0.008467
394.000000	0.008276
393.000000	0.008138
392.000000	0.007854
391.000000	0.007869
390.000000	0.007741
389.000000	0.007599
388.000000	0.007271
387.000000	0.007159
386.000000	0.007091
385.000000	0.006963
384.000000	0.007004
383.000000	0.005182
382.000000	0.004220
381.000000	0.004142
380.000000	0.004050
379.000000	0.003935
378.000000	0.003587
377.000000	0.002779
376.000000	0.003030
375.000000	0.002340
374.000000	0.002296
373.000000	0.001743
372.000000	0.001807
371.000000	0.001177
370.000000	0.001478
369.000000	0.000591
368.000000	0.001256
367.000000	0.000690
366.000000	0.000363
365.000000	0.000493
364.000000	-0.000228
363.000000	-0.000415
362.000000	-0.000841
361.000000	-0.000659
360.000000	-0.001454
359.000000	-0.001231
358.000000	-0.002006
357.000000	-0.001607
356.000000	-0.002818
355.000000	-0.002045
354.000000	-0.002996
353.000000	-0.003420
352.000000	-0.003577
351.000000	-0.004005
350.000000	-0.004158
349.000000	-0.004721
348.000000	-0.004558
347.000000	-0.005767
346.000000	-0.004797
345.000000	-0.006524
344.000000	-0.004992
343.000000	-0.006989
342.000000	-0.005200
341.000000	-0.007038
340.000000	-0.006258
339.000000	-0.007793
338.000000	-0.006889
337.000000	-0.007062
336.000000	-0.006663
335.000000	-0.006672
334.000000	-0.007142
333.000000	-0.005956
332.000000	-0.007593
331.000000	-0.005041
330.000000	-0.006791
329.000000	-0.004102
328.000000	-0.007008
327.000000	-0.005374
326.000000	-0.010839
325.000000	-0.010605
324.000000	-0.010938
323.000000	-0.010725
322.000000	-0.011015
321.000000	-0.010837
320.000000	-0.011365
319.000000	-0.011101
318.000000	-0.011324
317.000000	-0.011248
316.000000	-0.011215
315.000000	-0.011289
314.000000	-0.011168
313.000000	-0.011409
312.000000	-0.011457
311.000000	-0.011686
310.000000	-0.011652
309.000000	-0.012048
308.000000	-0.011849
307.000000	-0.012060
306.000000	-0.012265
305.000000	-0.012783
304.000000	-0.012681
303.000000	-0.013326
302.000000	-0.013509
301.000000	-0.013700
300.000000	-0.014729
299.000000	-0.015201
298.000000	-0.017089
297.000000	-0.018725
296.000000	-0.022388
295.000000	-0.023567
294.000000	-0.024900
293.000000	-0.017499
292.000000	-0.011662
291.000000	-0.009574
290.000000	-0.017097
289.000000	-0.020275
288.000000	-0.021360
287.000000	-0.030348
286.000000	-0.012930
285.000000	-0.029463
284.000000	0.048747
283.000000	-0.040602
282.000000	0.135135
281.000000	0.058772
280.000000	0.466665
279.000000	-0.029043
278.000000	0.210822
277.000000	-0.031396
276.000000	0.252417
275.000000	0.092552
274.000000	0.262277
273.000000	0.173534
272.000000	0.103251
271.000000	0.421211
270.000000	0.021652
269.000000	10.000000
268.000000	-0.065042
267.000000	0.379389
266.000000	0.083319
265.000000	10.000000
264.000000	0.877369
263.000000	10.000000
262.000000	10.000000
261.000000	0.272902
260.000000	10.000000
259.000000	0.702666
258.000000	0.474172
257.000000	10.000000
256.000000	10.000000
255.000000	0.411762
254.000000	0.451706
253.000000	-0.335377
252.000000	10.000000
251.000000	-0.225423
250.000000	10.000000
249.000000	10.000000
248.000000	0.443832
247.000000	10.000000
246.000000	10.000000
245.000000	1.027278
244.000000	10.000000
243.000000	10.000000
242.000000	10.000000
241.000000	-0.098992
240.000000	10.000000
239.000000	10.000000
238.000000	-0.899567
237.000000	10.000000
236.000000	0.594095
235.000000	10.000000
234.000000	-0.292315
233.000000	0.250123
232.000000	-0.574796
231.000000	10.000000
230.000000	10.000000
229.000000	10.000000
228.000000	10.000000
227.000000	0.750305
226.000000	10.000000
225.000000	10.000000
224.000000	10.000000
223.000000	10.000000
222.000000	10.000000
221.000000	10.000000
220.000000	10.000000
219.000000	-0.264238
218.000000	0.276858
217.000000	10.000000
216.000000	-0.038022
215.000000	10.000000
214.000000	10.000000
213.000000	0.549259
212.000000	10.000000
211.000000	10.000000
210.000000	-0.066293
209.000000	10.000000
208.000000	0.121564
207.000000	10.000000
206.000000	-0.117702
205.000000	10.000000
204.000000	10.000000
203.000000	-0.444001
202.000000	-0.371334
201.000000	10.000000
200.000000	10.000000
