PE UV       SUBTECH     SPECTRUM    ASCII       PEDS        4.00        
   -1
NaOH_1.Sample.asc
23/09/27
16:49:42.00
23/09/27
16:49:42.00
Analyst

200.000000
1
Lambda 35
101N2082704
PerkinElmer UV WinLab 6.0.4.0738 / Lambda35 1.24

480
2
1
0
0
Both on
1
1
1
None
0
0
0
0
 
 
0
0
0
0
0
 
 
 
0
 
0
326
0
 
0
 
 
 
0
0
0
 
0
 
 
 
0
 
 
0
0
0
0
0
 
 
 
 
0
0


0
0
#HDR
-1
-1
#GR
nm
A
1.0
0.0
700.000000
-1.000000
501
8
10.000000
-0.006613
#DATA
700.000000	-0.004875
699.000000	-0.005147
698.000000	-0.005123
697.000000	-0.005314
696.000000	-0.005218
695.000000	-0.005316
694.000000	-0.005191
693.000000	-0.005401
692.000000	-0.005180
691.000000	-0.005288
690.000000	-0.005158
689.000000	-0.005208
688.000000	-0.005257
687.000000	-0.005288
686.000000	-0.005202
685.000000	-0.005368
684.000000	-0.005297
683.000000	-0.005677
682.000000	-0.005557
681.000000	-0.005627
680.000000	-0.005516
679.000000	-0.005653
678.000000	-0.005543
677.000000	-0.005723
676.000000	-0.005477
675.000000	-0.005751
674.000000	-0.005591
673.000000	-0.005579
672.000000	-0.005570
671.000000	-0.005659
670.000000	-0.005602
669.000000	-0.005734
668.000000	-0.005746
667.000000	-0.005785
666.000000	-0.005700
665.000000	-0.005764
664.000000	-0.005794
663.000000	-0.005780
662.000000	-0.005685
661.000000	-0.005826
660.000000	-0.005608
659.000000	-0.005775
658.000000	-0.005679
657.000000	-0.005850
656.000000	-0.005656
655.000000	-0.005838
654.000000	-0.005731
653.000000	-0.005908
652.000000	-0.005972
651.000000	-0.006013
650.000000	-0.005989
649.000000	-0.006162
648.000000	-0.006080
647.000000	-0.006116
646.000000	-0.006132
645.000000	-0.006168
644.000000	-0.006251
643.000000	-0.006117
642.000000	-0.006314
641.000000	-0.006232
640.000000	-0.006238
639.000000	-0.006152
638.000000	-0.006199
637.000000	-0.006015
636.000000	-0.006305
635.000000	-0.006091
634.000000	-0.006338
633.000000	-0.006315
632.000000	-0.006307
631.000000	-0.006290
630.000000	-0.006209
629.000000	-0.006231
628.000000	-0.006312
627.000000	-0.006270
626.000000	-0.006249
625.000000	-0.006251
624.000000	-0.006254
623.000000	-0.006238
622.000000	-0.006377
621.000000	-0.006356
620.000000	-0.006389
619.000000	-0.006352
618.000000	-0.006539
617.000000	-0.006187
616.000000	-0.006525
615.000000	-0.006412
614.000000	-0.006460
613.000000	-0.006341
612.000000	-0.006479
611.000000	-0.006506
610.000000	-0.006613
609.000000	-0.006440
608.000000	-0.006579
607.000000	-0.006414
606.000000	-0.006540
605.000000	-0.006389
604.000000	-0.006336
603.000000	-0.006204
602.000000	-0.006221
601.000000	-0.006115
600.000000	-0.006146
599.000000	-0.006054
598.000000	-0.006014
597.000000	-0.005897
596.000000	-0.005881
595.000000	-0.005823
594.000000	-0.005691
593.000000	-0.005648
592.000000	-0.005614
591.000000	-0.005495
590.000000	-0.005557
589.000000	-0.005361
588.000000	-0.005363
587.000000	-0.005196
586.000000	-0.005047
585.000000	-0.005011
584.000000	-0.004876
583.000000	-0.004825
582.000000	-0.004710
581.000000	-0.004708
580.000000	-0.004527
579.000000	-0.004395
578.000000	-0.004260
577.000000	-0.004174
576.000000	-0.003958
575.000000	-0.003751
574.000000	-0.003567
573.000000	-0.003485
572.000000	-0.003279
571.000000	-0.002933
570.000000	-0.002628
569.000000	-0.002361
568.000000	-0.001955
567.000000	-0.001643
566.000000	-0.001272
565.000000	-0.000895
564.000000	-0.000614
563.000000	-0.000015
562.000000	0.000287
561.000000	0.000876
560.000000	0.001249
559.000000	0.001942
558.000000	0.002423
557.000000	0.003157
556.000000	0.003787
555.000000	0.004731
554.000000	0.005405
553.000000	0.006532
552.000000	0.007468
551.000000	0.008774
550.000000	0.009765
549.000000	0.011304
548.000000	0.012581
547.000000	0.014183
546.000000	0.015637
545.000000	0.017704
544.000000	0.019256
543.000000	0.021569
542.000000	0.023690
541.000000	0.026338
540.000000	0.028759
539.000000	0.031823
538.000000	0.034678
537.000000	0.038229
536.000000	0.041528
535.000000	0.045418
534.000000	0.049310
533.000000	0.053894
532.000000	0.058231
531.000000	0.063288
530.000000	0.068417
529.000000	0.074064
528.000000	0.079992
527.000000	0.086220
526.000000	0.092961
525.000000	0.099954
524.000000	0.107449
523.000000	0.115371
522.000000	0.124028
521.000000	0.132927
520.000000	0.142544
519.000000	0.152619
518.000000	0.163338
517.000000	0.174625
516.000000	0.186508
515.000000	0.198971
514.000000	0.212210
513.000000	0.226024
512.000000	0.240715
511.000000	0.255985
510.000000	0.271987
509.000000	0.288618
508.000000	0.306065
507.000000	0.324123
506.000000	0.343136
505.000000	0.362430
504.000000	0.383012
503.000000	0.403657
502.000000	0.425242
501.000000	0.447086
500.000000	0.469938
499.000000	0.492854
498.000000	0.517003
497.000000	0.541200
496.000000	0.566158
495.000000	0.591140
494.000000	0.617190
493.000000	0.643363
492.000000	0.670123
491.000000	0.697032
490.000000	0.724706
489.000000	0.752658
488.000000	0.780900
487.000000	0.808772
486.000000	0.837799
485.000000	0.865771
484.000000	0.895175
483.000000	0.923329
482.000000	0.952988
481.000000	0.981287
480.000000	1.010382
479.000000	1.038942
478.000000	1.067144
477.000000	1.095356
476.000000	1.122492
475.000000	1.150200
474.000000	1.176371
473.000000	1.203285
472.000000	1.227777
471.000000	1.253792
470.000000	1.277181
469.000000	1.300597
468.000000	1.323594
467.000000	1.344731
466.000000	1.367133
465.000000	1.386926
464.000000	1.408567
463.000000	1.426216
462.000000	1.445803
461.000000	1.461845
460.000000	1.480269
459.000000	1.494445
458.000000	1.509798
457.000000	1.527166
456.000000	1.537552
455.000000	1.552173
454.000000	1.562699
453.000000	1.576453
452.000000	1.584466
451.000000	1.593170
450.000000	1.603576
449.000000	1.612516
448.000000	1.620022
447.000000	1.625159
446.000000	1.633783
445.000000	1.636616
444.000000	1.643149
443.000000	1.643963
442.000000	1.649774
441.000000	1.652143
440.000000	1.655464
439.000000	1.660262
438.000000	1.657841
437.000000	1.660391
436.000000	1.658692
435.000000	1.660381
434.000000	1.657872
433.000000	1.660422
432.000000	1.659280
431.000000	1.657543
430.000000	1.656510
429.000000	1.654068
428.000000	1.653007
427.000000	1.643793
426.000000	1.647215
425.000000	1.640143
424.000000	1.640951
423.000000	1.631403
422.000000	1.631530
421.000000	1.621013
420.000000	1.613655
419.000000	1.606375
418.000000	1.602405
417.000000	1.595630
416.000000	1.589815
415.000000	1.581766
414.000000	1.575192
413.000000	1.566418
412.000000	1.559420
411.000000	1.549974
410.000000	1.541540
409.000000	1.534026
408.000000	1.523666
407.000000	1.515347
406.000000	1.503925
405.000000	1.495166
404.000000	1.483847
403.000000	1.472774
402.000000	1.462424
401.000000	1.450821
400.000000	1.439624
399.000000	1.426918
398.000000	1.416119
397.000000	1.402531
396.000000	1.390092
395.000000	1.375460
394.000000	1.362744
393.000000	1.348581
392.000000	1.335356
391.000000	1.320400
390.000000	1.305169
389.000000	1.290661
388.000000	1.274744
387.000000	1.258912
386.000000	1.242218
385.000000	1.227397
384.000000	1.209673
383.000000	1.206077
382.000000	1.198830
381.000000	1.173140
380.000000	1.157775
379.000000	1.136861
378.000000	1.120900
377.000000	1.104470
376.000000	1.079648
375.000000	1.065573
374.000000	1.043017
373.000000	1.026124
372.000000	1.004389
371.000000	0.982817
370.000000	0.965012
369.000000	0.941647
368.000000	0.925068
367.000000	0.900429
366.000000	0.881964
365.000000	0.857714
364.000000	0.836640
363.000000	0.813789
362.000000	0.793753
361.000000	0.772272
360.000000	0.749809
359.000000	0.729479
358.000000	0.708463
357.000000	0.688500
356.000000	0.665050
355.000000	0.645462
354.000000	0.624971
353.000000	0.606387
352.000000	0.586785
351.000000	0.567355
350.000000	0.549765
349.000000	0.530112
348.000000	0.514206
347.000000	0.495972
346.000000	0.481618
345.000000	0.464272
344.000000	0.451715
343.000000	0.436560
342.000000	0.425699
341.000000	0.412481
340.000000	0.402237
339.000000	0.391755
338.000000	0.384231
337.000000	0.379927
336.000000	0.373506
335.000000	0.371466
334.000000	0.369309
333.000000	0.369821
332.000000	0.368971
331.000000	0.371285
330.000000	0.372686
329.000000	0.373031
328.000000	0.374167
327.000000	0.369812
326.000000	0.365888
325.000000	0.364738
324.000000	0.364752
323.000000	0.364525
322.000000	0.366161
321.000000	0.367434
320.000000	0.369966
319.000000	0.372136
318.000000	0.374684
317.000000	0.376874
316.000000	0.378089
315.000000	0.379452
314.000000	0.379415
313.000000	0.380030
312.000000	0.379332
311.000000	0.379909
310.000000	0.379677
309.000000	0.380279
308.000000	0.380464
307.000000	0.381089
306.000000	0.382070
305.000000	0.382632
304.000000	0.384253
303.000000	0.384321
302.000000	0.386486
301.000000	0.387827
300.000000	0.390460
299.000000	0.392138
298.000000	0.395434
297.000000	0.399274
296.000000	0.401791
295.000000	0.408731
294.000000	0.412610
293.000000	0.431083
292.000000	0.444821
291.000000	0.460088
290.000000	0.465765
289.000000	0.478918
288.000000	0.489377
287.000000	0.495374
286.000000	0.551362
285.000000	0.533466
284.000000	0.602874
283.000000	0.408442
282.000000	1.069411
281.000000	0.533363
280.000000	1.826168
279.000000	1.337428
278.000000	1.870368
277.000000	10.000000
276.000000	1.295425
275.000000	0.770109
274.000000	0.619394
273.000000	10.000000
272.000000	10.000000
271.000000	10.000000
270.000000	10.000000
269.000000	10.000000
268.000000	10.000000
267.000000	1.395489
266.000000	10.000000
265.000000	10.000000
264.000000	10.000000
263.000000	10.000000
262.000000	10.000000
261.000000	10.000000
260.000000	10.000000
259.000000	10.000000
258.000000	10.000000
257.000000	10.000000
256.000000	10.000000
255.000000	10.000000
254.000000	10.000000
253.000000	10.000000
252.000000	10.000000
251.000000	10.000000
250.000000	10.000000
249.000000	10.000000
248.000000	10.000000
247.000000	10.000000
246.000000	10.000000
245.000000	10.000000
244.000000	10.000000
243.000000	1.416152
242.000000	10.000000
241.000000	10.000000
240.000000	10.000000
239.000000	10.000000
238.000000	10.000000
237.000000	10.000000
236.000000	10.000000
235.000000	10.000000
234.000000	10.000000
233.000000	10.000000
232.000000	10.000000
231.000000	10.000000
230.000000	10.000000
229.000000	10.000000
228.000000	10.000000
227.000000	1.732714
226.000000	10.000000
225.000000	10.000000
224.000000	10.000000
223.000000	10.000000
222.000000	10.000000
221.000000	10.000000
220.000000	10.000000
219.000000	10.000000
218.000000	10.000000
217.000000	10.000000
216.000000	10.000000
215.000000	10.000000
214.000000	10.000000
213.000000	10.000000
212.000000	10.000000
211.000000	10.000000
210.000000	0.346164
209.000000	10.000000
208.000000	10.000000
207.000000	10.000000
206.000000	10.000000
205.000000	2.385823
204.000000	10.000000
203.000000	0.430319
202.000000	10.000000
201.000000	0.850687
200.000000	10.000000
