PE UV       SUBTECH     SPECTRUM    ASCII       PEDS        4.00        
   -1
NaOH_2.Sample.Raw.asc
23/09/27
16:52:39.00
23/09/27
16:52:39.00
Analyst

200.000000
1
Lambda 35
101N2082704
PerkinElmer UV WinLab 6.0.4.0738 / Lambda35 1.24

480
2
1
0
0
Both on
1
1
1
None
0
0
0
0
 
 
0
0
0
0
0
 
 
 
0
 
0
326
0
 
0
 
 
 
0
0
0
 
0
 
 
 
0
 
 
0
0
0
0
0
 
 
 
 
0
0


0
0
#HDR
-1
-1
#GR
nm
A
1.0
0.0
700.000000
-1.000000
501
8
10.000000
-1.010754
#DATA
700.000000	-0.004390
699.000000	-0.004609
698.000000	-0.004388
697.000000	-0.004506
696.000000	-0.004324
695.000000	-0.004499
694.000000	-0.004282
693.000000	-0.004545
692.000000	-0.004313
691.000000	-0.004551
690.000000	-0.004339
689.000000	-0.004524
688.000000	-0.004438
687.000000	-0.004604
686.000000	-0.004435
685.000000	-0.004664
684.000000	-0.004497
683.000000	-0.004954
682.000000	-0.004747
681.000000	-0.004966
680.000000	-0.004749
679.000000	-0.004934
678.000000	-0.004833
677.000000	-0.005038
676.000000	-0.004767
675.000000	-0.005046
674.000000	-0.004886
673.000000	-0.005013
672.000000	-0.004898
671.000000	-0.004972
670.000000	-0.004847
669.000000	-0.005043
668.000000	-0.004962
667.000000	-0.005055
666.000000	-0.005041
665.000000	-0.005072
664.000000	-0.005019
663.000000	-0.004996
662.000000	-0.004944
661.000000	-0.005037
660.000000	-0.004891
659.000000	-0.004966
658.000000	-0.004821
657.000000	-0.004939
656.000000	-0.004885
655.000000	-0.004911
654.000000	-0.004883
653.000000	-0.004958
652.000000	-0.004885
651.000000	-0.004911
650.000000	-0.005028
649.000000	-0.005070
648.000000	-0.005128
647.000000	-0.005106
646.000000	-0.005238
645.000000	-0.005182
644.000000	-0.005328
643.000000	-0.005125
642.000000	-0.005439
641.000000	-0.005226
640.000000	-0.005290
639.000000	-0.005203
638.000000	-0.005469
637.000000	-0.005236
636.000000	-0.005434
635.000000	-0.005185
634.000000	-0.005427
633.000000	-0.005316
632.000000	-0.005361
631.000000	-0.005295
630.000000	-0.005350
629.000000	-0.005274
628.000000	-0.005375
627.000000	-0.005229
626.000000	-0.005310
625.000000	-0.005220
624.000000	-0.005261
623.000000	-0.005269
622.000000	-0.005251
621.000000	-0.005298
620.000000	-0.005262
619.000000	-0.005195
618.000000	-0.005303
617.000000	-0.005205
616.000000	-0.005125
615.000000	-0.005316
614.000000	-0.005177
613.000000	-0.005273
612.000000	-0.005229
611.000000	-0.005421
610.000000	-0.005306
609.000000	-0.005359
608.000000	-0.005166
607.000000	-0.005288
606.000000	-0.005149
605.000000	-0.005172
604.000000	-0.005067
603.000000	-0.004960
602.000000	-0.005019
601.000000	-0.004898
600.000000	-0.004952
599.000000	-0.004919
598.000000	-0.004829
597.000000	-0.004716
596.000000	-0.004794
595.000000	-0.004746
594.000000	-0.004702
593.000000	-0.004684
592.000000	-0.004635
591.000000	-0.004541
590.000000	-0.004487
589.000000	-0.004346
588.000000	-0.004277
587.000000	-0.004196
586.000000	-0.004051
585.000000	-0.004100
584.000000	-0.003915
583.000000	-0.003854
582.000000	-0.003754
581.000000	-0.003682
580.000000	-0.003501
579.000000	-0.003394
578.000000	-0.003354
577.000000	-0.003218
576.000000	-0.003127
575.000000	-0.003046
574.000000	-0.002966
573.000000	-0.002799
572.000000	-0.002834
571.000000	-0.002542
570.000000	-0.002582
569.000000	-0.002146
568.000000	-0.002201
567.000000	-0.001743
566.000000	-0.001723
565.000000	-0.001251
564.000000	-0.001191
563.000000	-0.000674
562.000000	-0.000593
561.000000	-0.000106
560.000000	0.000096
559.000000	0.000801
558.000000	0.000867
557.000000	0.001401
556.000000	0.001715
555.000000	0.002377
554.000000	0.002631
553.000000	0.003203
552.000000	0.003629
551.000000	0.004477
550.000000	0.004840
549.000000	0.005873
548.000000	0.006345
547.000000	0.007418
546.000000	0.007971
545.000000	0.009232
544.000000	0.009882
543.000000	0.011196
542.000000	0.012101
541.000000	0.013707
540.000000	0.014746
539.000000	0.016370
538.000000	0.017707
537.000000	0.019561
536.000000	0.021056
535.000000	0.023075
534.000000	0.024836
533.000000	0.027118
532.000000	0.029195
531.000000	0.031753
530.000000	0.034090
529.000000	0.036836
528.000000	0.039682
527.000000	0.042732
526.000000	0.045909
525.000000	0.049291
524.000000	0.052910
523.000000	0.056724
522.000000	0.060699
521.000000	0.064929
520.000000	0.069415
519.000000	0.074221
518.000000	0.079094
517.000000	0.084523
516.000000	0.089847
515.000000	0.095811
514.000000	0.101799
513.000000	0.108341
512.000000	0.114972
511.000000	0.122077
510.000000	0.129428
509.000000	0.137138
508.000000	0.145248
507.000000	0.153369
506.000000	0.162339
505.000000	0.171010
504.000000	0.180474
503.000000	0.189878
502.000000	0.199898
501.000000	0.209789
500.000000	0.220473
499.000000	0.230694
498.000000	0.241796
497.000000	0.252731
496.000000	0.264305
495.000000	0.275534
494.000000	0.287591
493.000000	0.299284
492.000000	0.312055
491.000000	0.324086
490.000000	0.337196
489.000000	0.349484
488.000000	0.362706
487.000000	0.375194
486.000000	0.388693
485.000000	0.401433
484.000000	0.415002
483.000000	0.427772
482.000000	0.441723
481.000000	0.454483
480.000000	0.468246
479.000000	0.481006
478.000000	0.494345
477.000000	0.507239
476.000000	0.520044
475.000000	0.532679
474.000000	0.545325
473.000000	0.557576
472.000000	0.569232
471.000000	0.581480
470.000000	0.592655
469.000000	0.603895
468.000000	0.614742
467.000000	0.625362
466.000000	0.635286
465.000000	0.645444
464.000000	0.654847
463.000000	0.664222
462.000000	0.673334
461.000000	0.681744
460.000000	0.690479
459.000000	0.698027
458.000000	0.705978
457.000000	0.713216
456.000000	0.719788
455.000000	0.726216
454.000000	0.732256
453.000000	0.738254
452.000000	0.742969
451.000000	0.748129
450.000000	0.752236
449.000000	0.757204
448.000000	0.760329
447.000000	0.764454
446.000000	0.767013
445.000000	0.770525
444.000000	0.772200
443.000000	0.774443
442.000000	0.776280
441.000000	0.778331
440.000000	0.779720
439.000000	0.780454
438.000000	0.781190
437.000000	0.781516
436.000000	0.781788
435.000000	0.781630
434.000000	0.781782
433.000000	0.781329
432.000000	0.780692
431.000000	0.780117
430.000000	0.778749
429.000000	0.777385
428.000000	0.775436
427.000000	0.774163
426.000000	0.771864
425.000000	0.770468
424.000000	0.767832
423.000000	0.766422
422.000000	0.762734
421.000000	0.760416
420.000000	0.756511
419.000000	0.753649
418.000000	0.750323
417.000000	0.747038
416.000000	0.743203
415.000000	0.739655
414.000000	0.735328
413.000000	0.731332
412.000000	0.727131
411.000000	0.722779
410.000000	0.718188
409.000000	0.713655
408.000000	0.709115
407.000000	0.704033
406.000000	0.699377
405.000000	0.694331
404.000000	0.689489
403.000000	0.684041
402.000000	0.679467
401.000000	0.673811
400.000000	0.668789
399.000000	0.663405
398.000000	0.658271
397.000000	0.652440
396.000000	0.647287
395.000000	0.641393
394.000000	0.635738
393.000000	0.630100
392.000000	0.624313
391.000000	0.618553
390.000000	0.612715
389.000000	0.606771
388.000000	0.600471
387.000000	0.594536
386.000000	0.588117
385.000000	0.582056
384.000000	0.575547
383.000000	0.571101
382.000000	0.562387
381.000000	0.557192
380.000000	0.548244
379.000000	0.542505
378.000000	0.535045
377.000000	0.528906
376.000000	0.520743
375.000000	0.512705
374.000000	0.505461
373.000000	0.496181
372.000000	0.488639
371.000000	0.479494
370.000000	0.472127
369.000000	0.462552
368.000000	0.454640
367.000000	0.445238
366.000000	0.436274
365.000000	0.426619
364.000000	0.417235
363.000000	0.407165
362.000000	0.397898
361.000000	0.388673
360.000000	0.378035
359.000000	0.369929
358.000000	0.358181
357.000000	0.349846
356.000000	0.338552
355.000000	0.330392
354.000000	0.319801
353.000000	0.311160
352.000000	0.302045
351.000000	0.292446
350.000000	0.283572
349.000000	0.275068
348.000000	0.266898
347.000000	0.257684
346.000000	0.251407
345.000000	0.242673
344.000000	0.237656
343.000000	0.229435
342.000000	0.223815
341.000000	0.216978
340.000000	0.212912
339.000000	0.207286
338.000000	0.203476
337.000000	0.200877
336.000000	0.197848
335.000000	0.197604
334.000000	0.195334
333.000000	0.197042
332.000000	0.194714
331.000000	0.196863
330.000000	0.195748
329.000000	0.196960
328.000000	0.195850
327.000000	0.194794
326.000000	0.189885
325.000000	0.189791
324.000000	0.188837
323.000000	0.188981
322.000000	0.189077
321.000000	0.189699
320.000000	0.190168
319.000000	0.190568
318.000000	0.192044
317.000000	0.192054
316.000000	0.192591
315.000000	0.192619
314.000000	0.192796
313.000000	0.192439
312.000000	0.192199
311.000000	0.192034
310.000000	0.191772
309.000000	0.191805
308.000000	0.192110
307.000000	0.192037
306.000000	0.192345
305.000000	0.192700
304.000000	0.192502
303.000000	0.193481
302.000000	0.193510
301.000000	0.194584
300.000000	0.195044
299.000000	0.195473
298.000000	0.196311
297.000000	0.196796
296.000000	0.196504
295.000000	0.196907
294.000000	0.202214
293.000000	0.205966
292.000000	0.225505
291.000000	0.225392
290.000000	0.233308
289.000000	0.227370
288.000000	0.236369
287.000000	0.230261
286.000000	0.247593
285.000000	0.251500
284.000000	0.242975
283.000000	0.254096
282.000000	0.250821
281.000000	0.489501
280.000000	0.284029
279.000000	1.271996
278.000000	0.010268
277.000000	10.000000
276.000000	0.242779
275.000000	0.383783
274.000000	-0.030211
273.000000	10.000000
272.000000	0.157552
271.000000	0.055528
270.000000	0.445007
269.000000	0.052652
268.000000	10.000000
267.000000	0.032499
266.000000	10.000000
265.000000	-0.076507
264.000000	10.000000
263.000000	0.486572
262.000000	10.000000
261.000000	-0.087026
260.000000	10.000000
259.000000	-0.387202
258.000000	-0.136611
257.000000	-0.772582
256.000000	-0.202020
255.000000	10.000000
254.000000	10.000000
253.000000	0.106869
252.000000	10.000000
251.000000	-0.259891
250.000000	-0.144412
249.000000	10.000000
248.000000	-0.179650
247.000000	10.000000
246.000000	10.000000
245.000000	0.724117
244.000000	0.740520
243.000000	-0.208518
242.000000	-0.061790
241.000000	10.000000
240.000000	10.000000
239.000000	-0.159013
238.000000	10.000000
237.000000	-0.664831
236.000000	10.000000
235.000000	-1.010754
234.000000	10.000000
233.000000	10.000000
232.000000	10.000000
231.000000	10.000000
230.000000	10.000000
229.000000	0.176018
228.000000	10.000000
227.000000	0.079117
226.000000	0.249809
225.000000	10.000000
224.000000	10.000000
223.000000	10.000000
222.000000	10.000000
221.000000	-0.441217
220.000000	0.873794
219.000000	10.000000
218.000000	-0.727963
217.000000	10.000000
216.000000	1.761495
215.000000	10.000000
214.000000	0.878980
213.000000	10.000000
212.000000	0.924882
211.000000	10.000000
210.000000	10.000000
209.000000	-0.205211
208.000000	-0.404676
207.000000	10.000000
206.000000	10.000000
205.000000	10.000000
204.000000	10.000000
203.000000	10.000000
202.000000	-0.121909
201.000000	10.000000
200.000000	10.000000
